# k [h/Mpc]    P(k) [(Mpc/h)^3]
1.000000000000000021e-03 3.071612867021488910e+03
1.027459485446180097e-03 3.147743377463080378e+03
1.055672994233329033e-03 3.225548668546995941e+03
1.084661231454404472e-03 3.305053408050887811e+03
1.114445470753562583e-03 3.386282062948430848e+03
1.145047569938281197e-03 3.469258848371444401e+03
1.176489987020186466e-03 3.554006736106970493e+03
1.208795796696343801e-03 3.640546862979662365e+03
1.241988707283130794e-03 3.728899674765465988e+03
1.276093078115091931e-03 3.819084980424946025e+03
1.311133937421564335e-03 3.911121901072821402e+03
1.347137000694184497e-03 4.005028817476957101e+03
1.384128689558757194e-03 4.100823316106195307e+03
1.422136151165336168e-03 4.198522133750795547e+03
1.461187278110747181e-03 4.298140888772750259e+03
1.501310728908172810e-03 4.399692893162951805e+03
1.542535949018822338e-03 4.503189780095920469e+03
1.584893192461114082e-03 4.608641897028210224e+03
1.628413544013250025e-03 4.716058235409385816e+03
1.673128942025444267e-03 4.825446358270062774e+03
1.719072201858574652e-03 4.936812326633411431e+03
1.766277039966442823e-03 5.050160624840044875e+03
1.814778098639323453e-03 5.165494062912381196e+03
1.864610971426956289e-03 5.282812608211780571e+03
1.915812229259642330e-03 5.402112683757807645e+03
1.968419447286611293e-03 5.523388445021977532e+03
2.022471232451355985e-03 5.646631809403095758e+03
2.078007251824171529e-03 5.771832366808152074e+03
2.135068261712696168e-03 5.898977290145626284e+03
2.193696137571797024e-03 6.028051245933836071e+03
2.253933904734791056e-03 6.159036305237917077e+03
2.315825769988507938e-03 6.291911407112461347e+03
2.379417154015395913e-03 6.426649892805180571e+03
2.444754724726473216e-03 6.563220896568109310e+03
2.511886431509579437e-03 6.701590230747098758e+03
2.580861540418074272e-03 6.841720292157212498e+03
2.651730670325789813e-03 6.983569969012264664e+03
2.724545830074793281e-03 7.127094550608600002e+03
2.799360456643182338e-03 7.272245640146308688e+03
2.876229454360987748e-03 7.418971018177437145e+03
2.955209235202887856e-03 7.567211941675096568e+03
3.036357760187358319e-03 7.716901610054498633e+03
3.119734581912619095e-03 7.867968390205022843e+03
3.205400888260593294e-03 8.020336025831054940e+03
3.293419547300957713e-03 8.173923567505225947e+03
3.383855153428233075e-03 8.328645310388596045e+03
3.476774074765777087e-03 8.484410740217452258e+03
3.572244501871464119e-03 8.641124488162700800e+03
3.670336497780800258e-03 8.798685093658856204e+03
3.771122049424195655e-03 8.956978643158905470e+03
3.874675120456132216e-03 9.115882821187693480e+03
3.981071705534973415e-03 9.275269552258441763e+03
4.090389886093310536e-03 9.435005010754055547e+03
4.202709887639691569e-03 9.594949641852259447e+03
4.318114138633850560e-03 9.754958199228873127e+03
4.436687330978611628e-03 9.914879800328555575e+03
4.558516482172869644e-03 1.007455784848164694e+04
4.683690999171267327e-03 1.023382265399288190e+04
4.812302743997420168e-03 1.039248756460574077e+04
4.944446101158830355e-03 1.055035867547016824e+04
5.080218046913023006e-03 1.070723582586565135e+04
5.219718220435652298e-03 1.086291280175700376e+04
5.363048996942865534e-03 1.101717756825002471e+04
5.510315562821568869e-03 1.116981253269398439e+04
5.661625992822727667e-03 1.132059483907409776e+04
5.817091329374357578e-03 1.146929277213788191e+04
5.976825664072413224e-03 1.161564564129379505e+04
6.140946221409365226e-03 1.175937795535541591e+04
6.309573444801930275e-03 1.190020868020198213e+04
6.482831084981073057e-03 1.203785181827652741e+04
6.660846290809154316e-03 1.217201702171192119e+04
6.843749702590877504e-03 1.230241025517069465e+04
7.031675547946470567e-03 1.242873450803399828e+04
7.224761740317567349e-03 1.255069019564694281e+04
7.423149980177935758e-03 1.266795835542458008e+04
7.626985859023443712e-03 1.278019275907672818e+04
7.836418966217518697e-03 1.288704404351459925e+04
8.051602998770538214e-03 1.298816282928275723e+04
8.272695874133697766e-03 1.308320093599642314e+04
8.499859846090154769e-03 1.317181265792936938e+04
8.733261623828437667e-03 1.325365609582457910e+04
8.973072494285637066e-03 1.332839454034289702e+04
9.219468447849992962e-03 1.339568946642661831e+04
9.472630307515245152e-03 1.345515867597639954e+04
9.732743861581504355e-03 1.350640917052784425e+04
1.000000000000000021e-02 1.354905828785449557e+04
1.027459485446180140e-02 1.358273582463223647e+04
1.055672994233329033e-02 1.360708617056238836e+04
1.084661231454404559e-02 1.362177047636292809e+04
1.114445470753563060e-02 1.362646884186805801e+04
1.145047569938281717e-02 1.362088224005466691e+04
1.176489987020185903e-02 1.360472166078276132e+04
1.208795796696343280e-02 1.357770457298067049e+04
1.241988707283130100e-02 1.353957499190105409e+04
1.276093078115091844e-02 1.349010729944402192e+04
1.311133937421564422e-02 1.342910850295681848e+04
1.347137000694184628e-02 1.335642039805436798e+04
1.384128689558757237e-02 1.327192161274810132e+04
1.422136151165336211e-02 1.317552950994429193e+04
1.461187278110747875e-02 1.306721618750994821e+04
1.501310728908173547e-02 1.294708132100827970e+04
1.542535949018821427e-02 1.281529586884347009e+04
1.584893192461113431e-02 1.267206882468142430e+04
1.628413544013249115e-02 1.251764686346639064e+04
1.673128942025444224e-02 1.235231383137948978e+04
1.719072201858574608e-02 1.217639001775355791e+04
1.766277039966442780e-02 1.199023120870455568e+04
1.814778098639323323e-02 1.179423225111271859e+04
1.864610971426956115e-02 1.158905007185693285e+04
1.915812229259642244e-02 1.137567948503958905e+04
1.968419447286612334e-02 1.115512537274299575e+04
2.022471232451356765e-02 1.092837078545733129e+04
2.078007251824172744e-02 1.069637207557572037e+04
2.135068261712695301e-02 1.046005461260398260e+04
2.193696137571795809e-02 1.022030907621132610e+04
2.253933904734791230e-02 9.977988316542174289e+03
2.315825769988507851e-02 9.734008654072056743e+03
2.379417154015396260e-02 9.489806522746361225e+03
2.444754724726472955e-02 9.246901105264234502e+03
2.511886431509579437e-02 9.006677944310213206e+03
2.580861540418074099e-02 8.770391136716772962e+03
2.651730670325791461e-02 8.539167641353238650e+03
2.724545830074791633e-02 8.314013164356667403e+03
2.799360456643180950e-02 8.095819335712956672e+03
2.876229454360986273e-02 7.885368687088182924e+03
2.955209235202886295e-02 7.683332818771583334e+03
3.036357760187358493e-02 7.490293778995445791e+03
3.119734581912619181e-02 7.306758252362442363e+03
3.205400888260593467e-02 7.133167545521243483e+03
3.293419547300957539e-02 6.969887937379256073e+03
3.383855153428233509e-02 6.816757637862310730e+03
3.476774074765778821e-02 6.673124703600603425e+03
3.572244501871466027e-02 6.538363648566047232e+03
3.670336497780802426e-02 6.411756187784297254e+03
3.771122049424197736e-02 6.291996764376408464e+03
3.874675120456130134e-02 6.177687801953078633e+03
3.981071705534973415e-02 6.067272433571579313e+03
4.090389886093310362e-02 5.958818594258193116e+03
4.202709887639691222e-02 5.850391005302367375e+03
4.318114138633850907e-02 5.739868773571658494e+03
4.436687330978611454e-02 5.625187867564935004e+03
4.558516482172869644e-02 5.504352066822899360e+03
4.683690999171270103e-02 5.375586035906008874e+03
4.812302743997418086e-02 5.237435635144725893e+03
4.944446101158827406e-02 5.088929739040711866e+03
5.080218046913020230e-02 4.929645771005212737e+03
5.219718220435649175e-02 4.759852349143659922e+03
5.363048996942865881e-02 4.580507358103858678e+03
5.510315562821568869e-02 4.393278566361340381e+03
5.661625992822727493e-02 4.200551153645245904e+03
5.817091329374357578e-02 4.005270348793038465e+03
5.976825664072413224e-02 3.810793638148288210e+03
6.140946221409365052e-02 3.620726521625320402e+03
6.309573444801933051e-02 3.438605246020771574e+03
6.482831084981076353e-02 3.267691618236951854e+03
6.660846290809158132e-02 3.110740606410857254e+03
6.843749702590873341e-02 2.969732008257364669e+03
7.031675547946467097e-02 2.845767553253125243e+03
7.224761740317567349e-02 2.738877499029100363e+03
7.423149980177935758e-02 2.648001706280137114e+03
7.626985859023444059e-02 2.571025256714022817e+03
7.836418966217519044e-02 2.504771214762484760e+03
8.051602998770537867e-02 2.445242931340034374e+03
8.272695874133702276e-02 2.387935953487041843e+03
8.499859846090150606e-02 2.328252632281326441e+03
8.733261623828432463e-02 2.262059981203993630e+03
8.973072494285633249e-02 2.186327455164311232e+03
9.219468447849987758e-02 2.099638340135636554e+03
9.472630307515245152e-02 2.002543544352377012e+03
9.732743861581504008e-02 1.897537387885250382e+03
1.000000000000000056e-01 1.788693340904355864e+03
1.027459485446180071e-01 1.681023914749336654e+03
1.055672994233329137e-01 1.579625812298482060e+03
1.084661231454404490e-01 1.488790930547230118e+03
1.114445470753562539e-01 1.411256221979363090e+03
1.145047569938281162e-01 1.347770659975294166e+03
1.176489987020185313e-01 1.296939544100275953e+03
1.208795796696343905e-01 1.255438078993411864e+03
1.241988707283130794e-01 1.218862529869951459e+03
1.276093078115091983e-01 1.182131075641799953e+03
1.311133937421564422e-01 1.140611828990601680e+03
1.347137000694184628e-01 1.091635382685708237e+03
1.384128689558757064e-01 1.035452917326891566e+03
1.422136151165336038e-01 9.749567612756658264e+02
1.461187278110747112e-01 9.145516526060184788e+02
1.501310728908172853e-01 8.585862068285089208e+02
1.542535949018820629e-01 8.101725086555670714e+02
1.584893192461114264e-01 7.704806186958360286e+02
1.628413544013249947e-01 7.384268730881058218e+02
1.673128942025444155e-01 7.108664007462575682e+02
1.719072201858574678e-01 6.838414343821747252e+02
1.766277039966442919e-01 6.542474427695767645e+02
1.814778098639323323e-01 6.209620959631303094e+02
1.864610971426956254e-01 5.851544072955356341e+02
1.915812229259642452e-01 5.497068519124494514e+02
1.968419447286611224e-01 5.176996290646143279e+02
2.022471232451355794e-01 4.905731055157480682e+02
2.078007251824171564e-01 4.676987856083270003e+02
2.135068261712696203e-01 4.470229424784043886e+02
2.193696137571796989e-01 4.262387013441968975e+02
2.253933904734791160e-01 4.040704281499939725e+02
2.315825769988507921e-01 3.811065963842356155e+02
2.379417154015396052e-01 3.589386302515481475e+02
2.444754724726473094e-01 3.389709400091913949e+02
2.511886431509579576e-01 3.215280986401061227e+02
2.580861540418074029e-01 3.055817596217601135e+02
2.651730670325789796e-01 2.899290475242276557e+02
2.724545830074790453e-01 2.741048764749614293e+02
2.799360456643182338e-01 2.585210255593999022e+02
2.876229454360987869e-01 2.439663339705591056e+02
2.955209235202888030e-01 2.307138288938309074e+02
3.036357760187358701e-01 2.184475946344792305e+02
3.119734581912619320e-01 2.066650648863983406e+02
3.205400888260593328e-01 1.950969143585894869e+02
3.293419547300957539e-01 1.840181585528479786e+02
3.383855153428233509e-01 1.736903565902147761e+02
3.476774074765777156e-01 1.641183057425218124e+02
3.572244501871464362e-01 1.549749631223262725e+02
3.670336497780800622e-01 1.461895582060852519e+02
3.771122049424199818e-01 1.378538894109545652e+02
3.874675120456131938e-01 1.300263704381024468e+02
3.981071705534973137e-01 1.226624403966394254e+02
4.090389886093310223e-01 1.156492036756030330e+02
4.202709887639691777e-01 1.089882738144135317e+02
4.318114138633850629e-01 1.027152676101543705e+02
4.436687330978611454e-01 9.679759523490290007e+01
4.558516482172869644e-01 9.119145084992045724e+01
4.683690999171267744e-01 8.588488476404212690e+01
4.812302743997415866e-01 8.087478368112098792e+01
4.944446101158824769e-01 7.614832286781505388e+01
5.080218046913023144e-01 7.168652668529205130e+01
5.219718220435651812e-01 6.747237688053178317e+01
5.363048996942866298e-01 6.349298954999298417e+01
5.510315562821569424e-01 5.973699036824927333e+01
5.661625992822727493e-01 5.619335337697681609e+01
5.817091329374357578e-01 5.285104029804927706e+01
5.976825664072412669e-01 4.969923426347351381e+01
6.140946221409364636e-01 4.672765209584614610e+01
6.309573444801930275e-01 4.392652691778400253e+01
6.482831084981072189e-01 4.128658964863162595e+01
6.660846290809153691e-01 3.879904670248432552e+01
6.843749702590877781e-01 3.645555110926066078e+01
7.031675547946470983e-01 3.424818162368569574e+01
7.224761740317566794e-01 3.216942315371058214e+01
7.423149980177935481e-01 3.021214831759205666e+01
7.626985859023444059e-01 2.836960664042788594e+01
7.836418966217518767e-01 2.663540469052691861e+01
8.051602998770538422e-01 2.500348112990815252e+01
8.272695874133697558e-01 2.346809089554269434e+01
8.499859846090145332e-01 2.202379033720460910e+01
8.733261623828428855e-01 2.066542293808182862e+01
8.973072494285637690e-01 1.938810560348054679e+01
9.219468447849992199e-01 1.818721466575865975e+01
9.472630307515245152e-01 1.705836794494939213e+01
9.732743861581504285e-01 1.599741767124790925e+01
1.000000000000000000e+00 1.500044222920767467e+01
