# k [h/Mpc]   P(k) [(Mpc/h)^3]
1.000000000000000021e-03 5.703955967785866960e+03
1.035321843295662538e-03 5.854944620689077965e+03
1.071891319205127554e-03 6.010227607342908414e+03
1.109752496412072130e-03 6.169884468723759710e+03
1.148951000187308554e-03 6.333993629319793399e+03
1.189534067370319513e-03 6.502622435581381069e+03
1.231550603292826162e-03 6.675832402933974663e+03
1.275051240713012809e-03 6.853685111139009678e+03
1.320088400831418048e-03 7.036242262363072768e+03
1.366716356462005988e-03 7.223565684433813658e+03
1.414991297434575876e-03 7.415717327317864147e+03
1.464971398307286267e-03 7.612751426147137863e+03
1.516716888470922469e-03 7.814699383847000718e+03
1.570290124729377445e-03 8.021588535561316348e+03
1.625755666443793376e-03 8.233446323595542708e+03
1.683180353330956556e-03 8.450300298891126658e+03
1.742633386009650835e-03 8.672178122526431252e+03
1.804186409392071833e-03 8.899106523469677995e+03
1.867913599020782755e-03 9.131084853624948664e+03
1.933891750455230159e-03 9.368082968660215556e+03
2.002200371815584384e-03 9.610069312815876401e+03
2.072921779595371904e-03 9.857012377453836962e+03
2.146141197858403554e-03 1.010888069916704808e+04
2.221946860939523916e-03 1.036564285788394773e+04
2.300430119772916854e-03 1.062725840296766546e+04
2.381685551976158062e-03 1.089362758710948765e+04
2.465811075822603882e-03 1.116462677255327253e+04
2.552908068239516468e-03 1.144013217403442650e+04
2.643081486974105387e-03 1.172001991677234582e+04
2.736439997074671757e-03 1.200416603006140213e+04
2.833096101839324091e-03 1.229244625103461294e+04
2.933166278390045463e-03 1.258469852771065052e+04
3.036771118035457451e-03 1.288067779315874395e+04
3.144035471591500111e-03 1.318012767205220189e+04
3.255088599835056357e-03 1.348279147801604813e+04
3.370064329271928172e-03 1.378841220375938428e+04
3.489101213406773684e-03 1.409673251192324096e+04
3.612342699709430310e-03 1.440748907758619680e+04
3.739937302478797687e-03 1.472032352911004637e+04
3.872038781812556923e-03 1.503479851725219305e+04
4.008806328898464194e-03 1.535047370685506394e+04
4.150404757850476717e-03 1.566690813498784883e+04
4.297004704320839599e-03 1.598366020584938087e+04
4.448782831127585241e-03 1.630028768787464651e+04
4.605922041145103958e-03 1.661631741896324820e+04
4.768611697714469390e-03 1.693112979760226153e+04
4.937047852839003374e-03 1.724406055640999693e+04
5.111433483440165799e-03 1.755444448724403628e+04
5.291978735958441891e-03 1.786161546584345706e+04
5.478901179593945181e-03 1.816490647307059044e+04
5.672426068491977225e-03 1.846364839912546449e+04
5.872786613189483196e-03 1.875708068094451664e+04
6.080224261649421272e-03 1.904429038458298601e+04
6.294988990221887619e-03 1.932434910790759386e+04
6.517339604882419792e-03 1.959632743316009146e+04
6.747544053110693212e-03 1.985929500569489028e+04
6.985879746785249485e-03 2.011232062253782715e+04
7.232633896483533706e-03 2.035446129303384805e+04
7.488103857590022727e-03 2.058464748445360237e+04
7.752597488629464108e-03 2.080172891753328804e+04
8.026433522257174491e-03 2.100455344270918795e+04
8.309941949353395751e-03 2.119196849901605674e+04
8.603464416684501043e-03 2.136282130499948471e+04
8.907354638610439843e-03 2.151595906430575269e+04
9.221978823334321326e-03 2.165022491636289124e+04
9.547716114208055702e-03 2.176444722388523223e+04
9.884959046625585791e-03 2.185745164353307700e+04
1.023411402105453213e-02 2.192806478317449364e+04
1.059560179277615859e-02 2.197511449008584532e+04
1.096985797892383561e-02 2.199743015451400424e+04
1.135733358343105071e-02 2.199384849708871479e+04
1.175849554052156402e-02 2.196341445029678653e+04
1.217382727739661427e-02 2.190543931075723594e+04
1.260382929679727468e-02 2.181925433153483755e+04
1.304901978014402254e-02 2.170419367419058108e+04
1.350993521198026563e-02 2.155959463150556621e+04
1.398713102647237971e-02 2.138479785498899582e+04
1.448118227674533715e-02 2.117926503693585983e+04
1.499268432786045671e-02 2.094341183022940459e+04
1.552225357427047120e-02 2.067811699357522957e+04
1.607052818261638441e-02 2.038426436496627139e+04
1.663816886076128349e-02 2.006273956262882712e+04
1.722585965398786695e-02 1.971442971918365220e+04
1.783430876931909465e-02 1.934022425516927251e+04
1.846424942895543569e-02 1.894157883147650500e+04
1.911644075385701691e-02 1.852144860549623991e+04
1.979166867853556291e-02 1.808303099575216766e+04
2.049074689815847186e-02 1.762951852413481538e+04
2.121451784910629787e-02 1.716409820493201187e+04
2.196385372416545870e-02 1.668995104723260010e+04
2.273965752357927361e-02 1.621026947221791306e+04
2.354286414322416532e-02 1.572861161548712880e+04
2.437444150122220626e-02 1.524888067530881926e+04
2.523539170434765944e-02 1.477498506759611701e+04
2.612675225563327805e-02 1.431082464894015902e+04
2.704959730463134260e-02 1.386029105406812050e+04
2.800503894183630979e-02 1.342725946008818210e+04
2.899422853882876669e-02 1.301476494512789031e+04
3.001835813575589110e-02 1.262432950493195494e+04
3.107866187782012263e-02 1.225731473256991740e+04
3.217641750250735400e-02 1.191508145092650375e+04
3.331294787934673679e-02 1.159859580679506507e+04
3.448962260405757929e-02 1.130659640526223120e+04
3.570785964900462933e-02 1.103704361708506804e+04
3.696912707195026265e-02 1.078741954359596821e+04
3.827494478516311333e-02 1.055367285181995794e+04
3.962688638701478139e-02 1.033121641088848992e+04
4.102658105827192148e-02 1.011437291553883733e+04
4.247571552536898165e-02 9.897034445942141247e+03
4.397603609302719319e-02 9.672843665185617283e+03
4.552935074866947679e-02 9.435785780043559498e+03
4.713753134116724364e-02 9.180627565860017057e+03
4.880251583654431069e-02 8.903559668211135431e+03
5.052631065335679711e-02 8.602734551322620973e+03
5.231099308056260527e-02 8.278769603559172538e+03
5.415871378079470388e-02 7.935045475224290385e+03
5.607169938205457810e-02 7.577532955969328214e+03
5.805225516094898730e-02 7.214411945322358406e+03
6.010276782070381879e-02 6.855518455032307429e+03
6.222570836730228344e-02 6.510926013177412642e+03
6.442363508721370147e-02 6.190222822055823599e+03
6.669919663030121626e-02 5.901040422274900266e+03
6.905513520162327723e-02 5.647990238303854312e+03
7.149428986597576585e-02 5.432527788947640147e+03
7.401959996915641327e-02 5.251912322148262319e+03
7.663410868007454468e-02 5.100168175809831155e+03
7.934096665797492343e-02 4.968019142892775562e+03
8.214343584919425734e-02 4.844658016890247382e+03
8.504489341802677627e-02 4.718814288339835912e+03
8.804883581643460633e-02 4.581804668260155267e+03
9.115888299750818380e-02 4.428631258392511882e+03
9.437878277775381408e-02 4.260294957462297134e+03
9.771241535346496254e-02 4.082770830289916375e+03
1.011637979766207007e-01 3.905568341098121437e+03
1.047370897959449682e-01 3.738680508190145247e+03
1.084365968689609827e-01 3.589572568352382859e+03
1.122667773510813566e-01 3.461117595411858474e+03
1.162322468679851811e-01 3.351149145271541329e+03
1.203377840777589275e-01 3.253970982296411876e+03
1.245883364295008178e-01 3.162383728879895443e+03
1.289890261253308079e-01 3.071175166600683042e+03
1.335451562929898806e-01 2.978027304635797918e+03
1.382622173764654905e-01 2.885603451467483410e+03
1.431458937523478470e-01 2.797554640020389797e+03
1.482020705798858529e-01 2.716367775119269936e+03
1.534368408930011640e-01 2.640921398257525652e+03
1.588565129428052836e-01 2.567840852235070997e+03
1.644676177994662813e-01 2.494341127483927721e+03
1.702769172225899463e-01 2.420931060585082378e+03
1.762914118095947891e-01 2.352586992428635313e+03
1.825183494319042588e-01 2.293924005893748472e+03
1.889652339691209604e-01 2.245447112163985821e+03
1.956398343517062877e-01 2.199833920460014724e+03
2.025501939230666404e-01 2.149865939990650531e+03
2.097046401323232889e-01 2.093422948895353329e+03
2.171117945694503171e-01 2.037821508016783582e+03
2.247805833548725263e-01 1.991326942238197717e+03
2.327202478960407328e-01 1.955379927079835397e+03
2.409403560239524456e-01 1.922348103540268767e+03
2.494508135230316670e-01 1.882519929499716227e+03
2.582618760682675041e-01 1.839509103275134748e+03
2.673841615839946395e-01 1.800500277835731595e+03
2.768286630392063907e-01 1.769696044661020323e+03
2.866067616948250185e-01 1.741673369243736715e+03
2.967302408188869367e-01 1.709392350189505805e+03
3.072112998861756261e-01 1.676660075531947541e+03
3.180625692794118997e-01 1.647647682909851710e+03
3.292971255097147942e-01 1.622011204180686491e+03
3.409285069746810781e-01 1.596462810524038559e+03
3.529707302730650254e-01 1.569554480091198457e+03
3.654383070957254454e-01 1.544475970135057651e+03
3.783462617131929107e-01 1.522305987406129589e+03
3.917101490809256625e-01 1.499397004336143709e+03
4.055460735840827891e-01 1.476924844630019606e+03
4.198707084443910054e-01 1.456373712007826725e+03
4.347013158125022092e-01 1.436143698638359410e+03
4.500557675700497251e-01 1.416474603084848241e+03
4.659525668664677434e-01 1.397710678689968063e+03
4.824108704165368522e-01 1.379566313935354628e+03
4.994505115855140120e-01 1.361959709476774151e+03
5.170920242896754893e-01 1.344993259248071581e+03
5.353566677410723784e-01 1.328682990425977778e+03
5.542664520663102001e-01 1.312964280602602685e+03
5.738441648302392561e-01 1.297780451478398390e+03
5.941133984965033532e-01 1.283113406497743199e+03
6.150985788580497493e-01 1.268953716999665176e+03
6.368249944718585853e-01 1.255291437185566792e+03
6.593188271333542128e-01 1.242112445680092605e+03
6.826071834272385841e-01 1.229400604818203647e+03
7.067181273927490848e-01 1.217139764678408483e+03
7.316807143427191962e-01 1.205313781519403165e+03
7.575250258771912826e-01 1.193907064068552927e+03
7.842822061337682005e-01 1.182905040048434103e+03
8.119844993184008874e-01 1.172293247660005136e+03
8.406652885618325355e-01 1.162057225608576118e+03
8.703591361485156774e-01 1.152182513073364362e+03
9.011018251665018353e-01 1.142654638522836876e+03
9.329304026284686024e-01 1.133458219451154037e+03
9.658832241158697984e-01 1.124576299758733057e+03
1.000000000000000000e+00 1.115991767649829171e+03
