# k [h/Mpc]   P(k) [(Mpc/h)^3]
1.000000000000000021e-03 3.313708451371472165e+03
1.035321843295662538e-03 3.387731848337386509e+03
1.071891319205127554e-03 3.463860187780694105e+03
1.109752496412072130e-03 3.542133740737643620e+03
1.148951000187308554e-03 3.622592181236693705e+03
1.189534067370319513e-03 3.705269551906142169e+03
1.231550603292826162e-03 3.790196916978076842e+03
1.275051240713012809e-03 3.877405341344830049e+03
1.320088400831418048e-03 3.966925919055452141e+03
1.366716356462005988e-03 4.058789774105457127e+03
1.414991297434575876e-03 4.153028057871861165e+03
1.464971398307286267e-03 4.249668074305187474e+03
1.516716888470922469e-03 4.348725809580841997e+03
1.570290124729377445e-03 4.450215211725044355e+03
1.625755666443793376e-03 4.554150254490592488e+03
1.683180353330956556e-03 4.660544937727312572e+03
1.742633386009650835e-03 4.769413287765233690e+03
1.804186409392071833e-03 4.880768843935229597e+03
1.867913599020782755e-03 4.994611641232793772e+03
1.933891750455230159e-03 5.110927176590566887e+03
2.002200371815584384e-03 5.229700240081976517e+03
2.072921779595371904e-03 5.350915633598895511e+03
2.146141197858403554e-03 5.474558170418430564e+03
2.221946860939523916e-03 5.600612674797275758e+03
2.300430119772916854e-03 5.729059541372935200e+03
2.381685551976158062e-03 5.859850141224136678e+03
2.465811075822603882e-03 5.992924169415054166e+03
2.552908068239516468e-03 6.128221270924515011e+03
2.643081486974105387e-03 6.265681070756219015e+03
2.736439997074671757e-03 6.405243172423876786e+03
2.833096101839324091e-03 6.546847062737178931e+03
2.933166278390045463e-03 6.690413606511365288e+03
3.036771118035457451e-03 6.835822746818568703e+03
3.144035471591500111e-03 6.982948922100940763e+03
3.255088599835056357e-03 7.131666498632515868e+03
3.370064329271928172e-03 7.281849768215183758e+03
3.489101213406773684e-03 7.433372946022055658e+03
3.612342699709430310e-03 7.586107385858747875e+03
3.739937302478797687e-03 7.739877721777878833e+03
3.872038781812556923e-03 7.894469826070501767e+03
4.008806328898464194e-03 8.049668260385732538e+03
4.150404757850476717e-03 8.205257439465123753e+03
4.297004704320839599e-03 8.361021629905186273e+03
4.448782831127585241e-03 8.516744949464718957e+03
4.605922041145103958e-03 8.672196215131498320e+03
4.768611697714469390e-03 8.827071195095701114e+03
4.937047852839003374e-03 8.981043558516557823e+03
5.111433483440165799e-03 9.133786750006096554e+03
5.291978735958441891e-03 9.284973997622950264e+03
5.478901179593945181e-03 9.434278317844731646e+03
5.672426068491977225e-03 9.581371919290519145e+03
5.872786613189483196e-03 9.725882148870699893e+03
6.080224261649421272e-03 9.867361499393204213e+03
6.294988990221887619e-03 1.000535511472863436e+04
6.517339604882419792e-03 1.013940789806079920e+04
6.747544053110693212e-03 1.026906453036367930e+04
6.985879746785249485e-03 1.039386949123292834e+04
7.232633896483533706e-03 1.051336141262065394e+04
7.488103857590022727e-03 1.062701411848120733e+04
7.752597488629464108e-03 1.073426014964356182e+04
8.026433522257174491e-03 1.083453124558465788e+04
8.309941949353395751e-03 1.092725904526491649e+04
8.603464416684501043e-03 1.101187513242091518e+04
8.907354638610439843e-03 1.108781108435502938e+04
9.221978823334321326e-03 1.115449683881096462e+04
9.547716114208055702e-03 1.121135642961276426e+04
9.884959046625585791e-03 1.125781271348136215e+04
1.023411402105453213e-02 1.129328877081203427e+04
1.059560179277615859e-02 1.131720797376200790e+04
1.096985797892383561e-02 1.132899405796338760e+04
1.135733358343105071e-02 1.132807387446779830e+04
1.175849554052156402e-02 1.131397562922824727e+04
1.217382727739661427e-02 1.128635727529232645e+04
1.260382929679727468e-02 1.124488585141833755e+04
1.304901978014402254e-02 1.118922908257167546e+04
1.350993521198026563e-02 1.111905543242792737e+04
1.398713102647237971e-02 1.103403415706259329e+04
1.448118227674533715e-02 1.093389312414844971e+04
1.499268432786045671e-02 1.081882849429485032e+04
1.552225357427047120e-02 1.068926354449834253e+04
1.607052818261638441e-02 1.054562352156793531e+04
1.663816886076128349e-02 1.038833408907481135e+04
1.722585965398786695e-02 1.021782126402484937e+04
1.783430876931909465e-02 1.003451186282437084e+04
1.846424942895543569e-02 9.839111005575447052e+03
1.911644075385701691e-02 9.633061761746112097e+03
1.979166867853556291e-02 9.417927392239680557e+03
2.049074689815847186e-02 9.195269999073847430e+03
2.121451784910629787e-02 8.966650380858336575e+03
2.196385372416545870e-02 8.733627915023804235e+03
2.273965752357927361e-02 8.497769367292568859e+03
2.354286414322416532e-02 8.260826181611610082e+03
2.437444150122220626e-02 8.024724505907880484e+03
2.523539170434765944e-02 7.791395408722895809e+03
2.612675225563327805e-02 7.562767951484167497e+03
2.704959730463134260e-02 7.340769267545668299e+03
2.800503894183630979e-02 7.127320419959894934e+03
2.899422853882876669e-02 6.923934918547613051e+03
3.001835813575589110e-02 6.731390079641701050e+03
3.107866187782012263e-02 6.550385409743679702e+03
3.217641750250735400e-02 6.381620243151677641e+03
3.331294787934673679e-02 6.225598912846246094e+03
3.448962260405757929e-02 6.081724267846014300e+03
3.570785964900462933e-02 5.949013349635349186e+03
3.696912707195026265e-02 5.826240434078734324e+03
3.827494478516311333e-02 5.711403865376958493e+03
3.962688638701478139e-02 5.602226401795396669e+03
4.102658105827192148e-02 5.495862697301942717e+03
4.247571552536898165e-02 5.389232682621257482e+03
4.397603609302719319e-02 5.279100613338164294e+03
4.552935074866947679e-02 5.162372009448551580e+03
4.713753134116724364e-02 5.036314795509668329e+03
4.880251583654431069e-02 4.898886032309810616e+03
5.052631065335679711e-02 4.749013907759040194e+03
5.231099308056260527e-02 4.586865054058360329e+03
5.415871378079470388e-02 4.414023605253485584e+03
5.607169938205457810e-02 4.233431410592540487e+03
5.805225516094898730e-02 4.049212541991933449e+03
6.010276782070381879e-02 3.866421345420840680e+03
6.222570836730228344e-02 3.690347146510790026e+03
6.442363508721370147e-02 3.526127151690377559e+03
6.669919663030121626e-02 3.377991241980146242e+03
6.905513520162327723e-02 3.248660880317046121e+03
7.149428986597576585e-02 3.139253636219964392e+03
7.401959996915641327e-02 3.048660141589868545e+03
7.663410868007454468e-02 2.973964233080747363e+03
7.934096665797492343e-02 2.910305671833229098e+03
8.214343584919425734e-02 2.851744900512334880e+03
8.504489341802677627e-02 2.791822541864960840e+03
8.804883581643460633e-02 2.725165728924823270e+03
9.115888299750818380e-02 2.648287468968007488e+03
9.437878277775381408e-02 2.561056338518488246e+03
9.771241535346496254e-02 2.466471329333454378e+03
1.011637979766207007e-01 2.370063914223305346e+03
1.047370897959449682e-01 2.278315378242880797e+03
1.084365968689609827e-01 2.196758966196772235e+03
1.122667773510813566e-01 2.128462543578586519e+03
1.162322468679851811e-01 2.073229404434785465e+03
1.203377840777589275e-01 2.027944600592003553e+03
1.245883364295008178e-01 1.987552946327457903e+03
1.289890261253308079e-01 1.946861232406280806e+03
1.335451562929898806e-01 1.901874385024499134e+03
1.382622173764654905e-01 1.852624229469464353e+03
1.431458937523478470e-01 1.801629358223422969e+03
1.482020705798858529e-01 1.753136528702975284e+03
1.534368408930011640e-01 1.709817854194977372e+03
1.588565129428052836e-01 1.672505851231260294e+03
1.644676177994662813e-01 1.639511688238704210e+03
1.702769172225899463e-01 1.608539993928361582e+03
1.762914118095947891e-01 1.577793766069508820e+03
1.825183494319042588e-01 1.547242980070431713e+03
1.889652339691209604e-01 1.517928417649577568e+03
1.956398343517062877e-01 1.490574410946942635e+03
2.025501939230666404e-01 1.465030079548167123e+03
2.097046401323232889e-01 1.440477928246065403e+03
2.171117945694503171e-01 1.416983769388686824e+03
2.247805833548725263e-01 1.395086429980250614e+03
2.327202478960407328e-01 1.375252406730910479e+03
2.409403560239524456e-01 1.356707472060580358e+03
2.494508135230316670e-01 1.338158613070502270e+03
2.582618760682675041e-01 1.319911882984896693e+03
2.673841615839946395e-01 1.302864259474408072e+03
2.768286630392063907e-01 1.287748807664486321e+03
2.866067616948250185e-01 1.273682366506955987e+03
2.967302408188869367e-01 1.259458256704194810e+03
3.072112998861756261e-01 1.245666309433190918e+03
3.180625692794118997e-01 1.232991183589561388e+03
3.292971255097147942e-01 1.221385254844444262e+03
3.409285069746810781e-01 1.210213060061965962e+03
3.529707302730650254e-01 1.199162356004682806e+03
3.654383070957254454e-01 1.188824529717640416e+03
3.783462617131929107e-01 1.179383168747166337e+03
3.917101490809256625e-01 1.170110915075581033e+03
4.055460735840827891e-01 1.161220855046767610e+03
4.198707084443910054e-01 1.152982946644818412e+03
4.347013158125022092e-01 1.145065035232821174e+03
4.500557675700497251e-01 1.137501389696265960e+03
4.659525668664677434e-01 1.130345446932882624e+03
4.824108704165368522e-01 1.123523497765605953e+03
4.994505115855140120e-01 1.117005934415766205e+03
5.170920242896754893e-01 1.110802564117006796e+03
5.353566677410723784e-01 1.104905532582976321e+03
5.542664520663102001e-01 1.099290454317302874e+03
5.738441648302392561e-01 1.093934983213489431e+03
5.941133984965033532e-01 1.088826159595570971e+03
6.150985788580497493e-01 1.083953132716925666e+03
6.368249944718585853e-01 1.079305091658570291e+03
6.593188271333542128e-01 1.074871544072951338e+03
6.826071834272385841e-01 1.070642151605788285e+03
7.067181273927490848e-01 1.066606577133188694e+03
7.316807143427191962e-01 1.062754491387189546e+03
7.575250258771912826e-01 1.059076339389856912e+03
7.842822061337682005e-01 1.055563994865830409e+03
8.119844993184008874e-01 1.052209485835850273e+03
8.406652885618325355e-01 1.049004840435255801e+03
8.703591361485156774e-01 1.045942086905462702e+03
9.011018251665018353e-01 1.043013257775807460e+03
9.329304026284686024e-01 1.040210728345614370e+03
9.658832241158697984e-01 1.037527465891100064e+03
1.000000000000000000e+00 1.034956496485530124e+03
