# k [h/Mpc]   P(k) [(Mpc/h)^3]
1.000000000000000021e-03 2.331025643902145475e+03
1.035321843295662538e-03 2.373592817152295083e+03
1.071891319205127554e-03 2.417369164175735023e+03
1.109752496412072130e-03 2.462378004189925377e+03
1.148951000187308554e-03 2.508642327310650671e+03
1.189534067370319513e-03 2.556182071124987488e+03
1.231550603292826162e-03 2.605015556165097223e+03
1.275051240713012809e-03 2.655161097416308621e+03
1.320088400831418048e-03 2.706637019576798593e+03
1.366716356462005988e-03 2.759461657328348338e+03
1.414991297434575876e-03 2.813653353610377053e+03
1.464971398307286267e-03 2.869228162091108970e+03
1.516716888470922469e-03 2.926195418659825009e+03
1.570290124729377445e-03 2.984563244086714803e+03
1.625755666443793376e-03 3.044339767694977127e+03
1.683180353330956556e-03 3.105533127473078366e+03
1.742633386009650835e-03 3.168151470219696876e+03
1.804186409392071833e-03 3.232202658288770635e+03
1.867913599020782755e-03 3.297686838077006541e+03
1.933891750455230159e-03 3.364595851974822835e+03
2.002200371815584384e-03 3.432921135958502873e+03
2.072921779595371904e-03 3.502654130029304270e+03
2.146141197858403554e-03 3.573786278088669860e+03
2.221946860939523916e-03 3.646309027784002410e+03
2.300430119772916854e-03 3.720211270473458171e+03
2.381685551976158062e-03 3.795465163693659633e+03
2.465811075822603882e-03 3.872036136808448191e+03
2.552908068239516468e-03 3.949889595017729334e+03
2.643081486974105387e-03 4.028990937066166680e+03
2.736439997074671757e-03 4.109305554769080118e+03
2.833096101839324091e-03 4.190798778742197101e+03
2.933166278390045463e-03 4.273425267229051315e+03
3.036771118035457451e-03 4.357116223588811408e+03
3.144035471591500111e-03 4.441799711400020897e+03
3.255088599835056357e-03 4.527403770627926860e+03
3.370064329271928172e-03 4.613856416880458710e+03
3.489101213406773684e-03 4.701085640691209846e+03
3.612342699709430310e-03 4.789017797247774070e+03
3.739937302478797687e-03 4.877552240406088458e+03
3.872038781812556923e-03 4.966565935396594796e+03
4.008806328898464194e-03 5.055935125445781523e+03
4.150404757850476717e-03 5.145536005403526360e+03
4.297004704320839599e-03 5.235244721292862778e+03
4.448782831127585241e-03 5.324937370114229452e+03
4.605922041145103958e-03 5.414481270648806458e+03
4.768611697714469390e-03 5.503701699665629349e+03
4.937047852839003374e-03 5.592411255417210668e+03
5.111433483440165799e-03 5.680422460996215705e+03
5.291978735958441891e-03 5.767547767982358891e+03
5.478901179593945181e-03 5.853599558084904857e+03
5.672426068491977225e-03 5.938389796626314819e+03
5.872786613189483196e-03 6.021704545331498593e+03
6.080224261649421272e-03 6.103286619145758777e+03
6.294988990221887619e-03 6.182874644575330422e+03
6.517339604882419792e-03 6.260207168383109092e+03
6.747544053110693212e-03 6.335022663646846013e+03
6.985879746785249485e-03 6.407059536639738326e+03
7.232633896483533706e-03 6.476052791413878367e+03
7.488103857590022727e-03 6.541699259110772800e+03
7.752597488629464108e-03 6.603671470738329845e+03
8.026433522257174491e-03 6.661641520856411262e+03
8.309941949353395751e-03 6.715281470071295189e+03
8.603464416684501043e-03 6.764263360038080464e+03
8.907354638610439843e-03 6.808259229626508386e+03
9.221978823334321326e-03 6.846940238099744420e+03
9.547716114208055702e-03 6.879974391981568260e+03
9.884959046625585791e-03 6.907029041074877568e+03
1.023411402105453213e-02 6.927771608784640193e+03
1.059560179277615859e-02 6.941869614649616778e+03
1.096985797892383561e-02 6.948990698091603008e+03
1.135733358343105071e-02 6.948804181229129426e+03
1.175849554052156402e-02 6.941037495525109080e+03
1.217382727739661427e-02 6.925492478985622256e+03
1.260382929679727468e-02 6.901976035009166480e+03
1.304901978014402254e-02 6.870295293739070075e+03
1.350993521198026563e-02 6.830257629446644387e+03
1.398713102647237971e-02 6.781670678287810915e+03
1.448118227674533715e-02 6.724375450072791864e+03
1.499268432786045671e-02 6.658481045434992666e+03
1.552225357427047120e-02 6.584226537885697326e+03
1.607052818261638441e-02 6.501852013262547189e+03
1.663816886076128349e-02 6.411597695916727389e+03
1.722585965398786695e-02 6.313703927872795248e+03
1.783430876931909465e-02 6.208411441406967242e+03
1.846424942895543569e-02 6.096121528395829955e+03
1.911644075385701691e-02 5.977661431691969483e+03
1.979166867853556291e-02 5.853927991347530224e+03
2.049074689815847186e-02 5.725817665036230210e+03
2.121451784910629787e-02 5.594226480111707133e+03
2.196385372416545870e-02 5.460049994486777905e+03
2.273965752357927361e-02 5.324188579818413928e+03
2.354286414322416532e-02 5.187653294091277530e+03
2.437444150122220626e-02 5.051560004574688719e+03
2.523539170434765944e-02 4.917028058513355063e+03
2.612675225563327805e-02 4.785176137898504749e+03
2.704959730463134260e-02 4.657122285509621179e+03
2.800503894183630979e-02 4.533981525572044120e+03
2.899422853882876669e-02 4.416637966014015547e+03
3.001835813575589110e-02 4.305558114994815696e+03
3.107866187782012263e-02 4.201164388054483425e+03
3.217641750250735400e-02 4.103879140863490647e+03
3.331294787934673679e-02 4.014010922881811439e+03
3.448962260405757929e-02 3.931225260160288599e+03
3.570785964900462933e-02 3.854962229057920922e+03
3.696912707195026265e-02 3.784519327318046635e+03
3.827494478516311333e-02 3.718738877470373154e+03
3.962688638701478139e-02 3.656299609156560564e+03
4.102658105827192148e-02 3.595538954765464950e+03
4.247571552536898165e-02 3.534648680117530603e+03
4.397603609302719319e-02 3.471715312057587653e+03
4.552935074866947679e-02 3.404896085408856834e+03
4.713753134116724364e-02 3.332548191560250416e+03
4.880251583654431069e-02 3.253420115742074813e+03
5.052631065335679711e-02 3.166821047361190722e+03
5.231099308056260527e-02 3.072787838184434349e+03
5.415871378079470388e-02 2.972197677562099670e+03
5.607169938205457810e-02 2.866741075081415147e+03
5.805225516094898730e-02 2.758831492748358869e+03
6.010276782070381879e-02 2.651469204549634014e+03
6.222570836730228344e-02 2.547835070252644982e+03
6.442363508721370147e-02 2.451060217855370411e+03
6.669919663030121626e-02 2.363782141043513548e+03
6.905513520162327723e-02 2.287757365592689894e+03
7.149428986597576585e-02 2.223792119159854337e+03
7.401959996915641327e-02 2.171332042097583326e+03
7.663410868007454468e-02 2.128700279958175088e+03
7.934096665797492343e-02 2.092982659963322476e+03
8.214343584919425734e-02 2.060502262253247864e+03
8.504489341802677627e-02 2.027168031603265490e+03
8.804883581643460633e-02 1.989467791129471379e+03
9.115888299750818380e-02 1.945013953232581798e+03
9.437878277775381408e-02 1.893511210515027869e+03
9.771241535346496254e-02 1.836720600835006053e+03
1.011637979766207007e-01 1.778150261260281695e+03
1.047370897959449682e-01 1.722107452499145438e+03
1.084365968689609827e-01 1.672459936408315116e+03
1.122667773510813566e-01 1.631569426792104878e+03
1.162322468679851811e-01 1.599588315514553187e+03
1.203377840777589275e-01 1.574577567562918375e+03
1.245883364295008178e-01 1.553105937481389901e+03
1.289890261253308079e-01 1.531252735249158604e+03
1.335451562929898806e-01 1.505710985401796961e+03
1.382622173764654905e-01 1.476136820409890561e+03
1.431458937523478470e-01 1.444295853764717322e+03
1.482020705798858529e-01 1.413667079437614575e+03
1.534368408930011640e-01 1.386810193659098104e+03
1.588565129428052836e-01 1.364945498498652569e+03
1.644676177994662813e-01 1.346956172073638982e+03
1.702769172225899463e-01 1.330694892351369845e+03
1.762914118095947891e-01 1.313809669478185015e+03
1.825183494319042588e-01 1.295635644438975760e+03
1.889652339691209604e-01 1.277078505046515374e+03
1.956398343517062877e-01 1.259853658859510233e+03
2.025501939230666404e-01 1.244827287895250720e+03
2.097046401323232889e-01 1.231514335487676590e+03
2.171117945694503171e-01 1.218953065706858752e+03
2.247805833548725263e-01 1.206509552415151120e+03
2.327202478960407328e-01 1.194449989485704236e+03
2.409403560239524456e-01 1.183108056066937934e+03
2.494508135230316670e-01 1.172601695547464260e+03
2.582618760682675041e-01 1.162727030811866143e+03
2.673841615839946395e-01 1.153355753419173652e+03
2.768286630392063907e-01 1.144624588478053056e+03
2.866067616948250185e-01 1.136420416933142860e+03
2.967302408188869367e-01 1.128542583975303160e+03
3.072112998861756261e-01 1.121066017946934153e+03
3.180625692794118997e-01 1.114099041748611171e+03
3.292971255097147942e-01 1.107640525989163052e+03
3.409285069746810781e-01 1.101499831927584637e+03
3.529707302730650254e-01 1.095573532105498998e+03
3.654383070957254454e-01 1.090046876777728130e+03
3.783462617131929107e-01 1.084957934499006114e+03
3.917101490809256625e-01 1.080038837423236146e+03
4.055460735840827891e-01 1.075377894985737385e+03
4.198707084443910054e-01 1.071066933222529087e+03
4.347013158125022092e-01 1.066958359203854343e+03
4.500557675700497251e-01 1.063067363134135576e+03
4.659525668664677434e-01 1.059414707806358592e+03
4.824108704165368522e-01 1.055961487681141762e+03
4.994505115855140120e-01 1.052690233804382842e+03
5.170920242896754893e-01 1.049602534809953340e+03
5.353566677410723784e-01 1.046691673583949068e+03
5.542664520663102001e-01 1.043943147343445389e+03
5.738441648302392561e-01 1.041343586913574882e+03
5.941133984965033532e-01 1.038884666481394788e+03
6.150985788580497493e-01 1.036559193323920908e+03
6.368249944718585853e-01 1.034360013441102183e+03
6.593188271333542128e-01 1.032280284163342458e+03
6.826071834272385841e-01 1.030313313233435792e+03
7.067181273927490848e-01 1.028452409445826788e+03
7.316807143427191962e-01 1.026690887717523083e+03
7.575250258771912826e-01 1.025022674618335714e+03
7.842822061337682005e-01 1.023442825458984316e+03
8.119844993184008874e-01 1.021946517391863949e+03
8.406652885618325355e-01 1.020528927593196158e+03
8.703591361485156774e-01 1.019185233286797938e+03
9.011018251665018353e-01 1.017910616381590103e+03
9.329304026284686024e-01 1.016700639820117203e+03
9.658832241158697984e-01 1.015551524670483673e+03
1.000000000000000000e+00 1.014459557314366066e+03
