# k [h/Mpc]   P(k) [(Mpc/h)^3]
1.000000000000000021e-03 5.665979438599099012e+03
1.035321843295662538e-03 5.814760393107443633e+03
1.071891319205127554e-03 5.967768259040711200e+03
1.109752496412072130e-03 6.125086225893232950e+03
1.148951000187308554e-03 6.286796306853151691e+03
1.189534067370319513e-03 6.452970510308241501e+03
1.231550603292826162e-03 6.623676209372748417e+03
1.275051240713012809e-03 6.798980871386568651e+03
1.320088400831418048e-03 6.978952088863900826e+03
1.366716356462005988e-03 7.163657583024605628e+03
1.414991297434575876e-03 7.353165188602628405e+03
1.464971398307286267e-03 7.547534478782817132e+03
1.516716888470922469e-03 7.746803569014113236e+03
1.570290124729377445e-03 7.951007267954594681e+03
1.625755666443793376e-03 8.160180497983443274e+03
1.683180353330956556e-03 8.374358297123450029e+03
1.742633386009650835e-03 8.593575820951475180e+03
1.804186409392071833e-03 8.817866987645007612e+03
1.867913599020782755e-03 9.047236939177972090e+03
1.933891750455230159e-03 9.281663238117440414e+03
2.002200371815584384e-03 9.521122396565582676e+03
2.072921779595371904e-03 9.765590984563246820e+03
2.146141197858403554e-03 1.001504562863737010e+04
2.221946860939523916e-03 1.026946301035123361e+04
2.300430119772916854e-03 1.052880893581198143e+04
2.381685551976158062e-03 1.079298703480576114e+04
2.465811075822603882e-03 1.106187891284520083e+04
2.552908068239516468e-03 1.133536607765224471e+04
2.643081486974105387e-03 1.161332995787890468e+04
2.736439997074671757e-03 1.189565189684046527e+04
2.833096101839324091e-03 1.218221281441625797e+04
2.933166278390045463e-03 1.247285336975598511e+04
3.036771118035457451e-03 1.276733604751052553e+04
3.144035471591500111e-03 1.306541409616724923e+04
3.255088599835056357e-03 1.336684047058945907e+04
3.370064329271928172e-03 1.367136782211659738e+04
3.489101213406773684e-03 1.397874848934635702e+04
3.612342699709430310e-03 1.428872697311356933e+04
3.739937302478797687e-03 1.460094205153072471e+04
3.872038781812556923e-03 1.491495435016167357e+04
4.008806328898464194e-03 1.523032207054404171e+04
4.150404757850476717e-03 1.554660278569835464e+04
4.297004704320839599e-03 1.586335343423803170e+04
4.448782831127585241e-03 1.618013031668081567e+04
4.605922041145103958e-03 1.649645604270842887e+04
4.768611697714469390e-03 1.681171352423180360e+04
4.937047852839003374e-03 1.712524825150593824e+04
5.111433483440165799e-03 1.743640479181727278e+04
5.291978735958441891e-03 1.774452680447770035e+04
5.478901179593945181e-03 1.804895706043607424e+04
5.672426068491977225e-03 1.834903556405592099e+04
5.872786613189483196e-03 1.864399990905277809e+04
6.080224261649421272e-03 1.893293612600897541e+04
6.294988990221887619e-03 1.921491697181560448e+04
6.517339604882419792e-03 1.948901417134293297e+04
6.747544053110693212e-03 1.975429849415974604e+04
6.985879746785249485e-03 2.000983984095871347e+04
7.232633896483533706e-03 2.025469332525157733e+04
7.488103857590022727e-03 2.048777681392006707e+04
7.752597488629464108e-03 2.070793044908101365e+04
8.026433522257174491e-03 2.091399287979080691e+04
8.309941949353395751e-03 2.110480230238529839e+04
8.603464416684501043e-03 2.127919665096954850e+04
8.907354638610439843e-03 2.143601379888956944e+04
9.221978823334321326e-03 2.157408272211750955e+04
9.547716114208055702e-03 2.169220451532395236e+04
9.884959046625585791e-03 2.178917540593859667e+04
1.023411402105453213e-02 2.186379252838562024e+04
1.059560179277615859e-02 2.191485421891049918e+04
1.096985797892383561e-02 2.194116032667942272e+04
1.135733358343105071e-02 2.194152031666828771e+04
1.175849554052156402e-02 2.191497480109430035e+04
1.217382727739661427e-02 2.186082771726378996e+04
1.260382929679727468e-02 2.177839988312466812e+04
1.304901978014402254e-02 2.166701503157915067e+04
1.350993521198026563e-02 2.152600003716811261e+04
1.398713102647237971e-02 2.135468514771547416e+04
1.448118227674533715e-02 2.115254199670098023e+04
1.499268432786045671e-02 2.092001098513709803e+04
1.552225357427047120e-02 2.065794784065488057e+04
1.607052818261638441e-02 2.036721196004272861e+04
1.663816886076128349e-02 2.004866458533593686e+04
1.722585965398786695e-02 1.970316854443188276e+04
1.783430876931909465e-02 1.933159039353394110e+04
1.846424942895543569e-02 1.893543016106662253e+04
1.911644075385701691e-02 1.851766470227392347e+04
1.979166867853556291e-02 1.808147773371004951e+04
2.049074689815847186e-02 1.763004814970656298e+04
2.121451784910629787e-02 1.716654940872279622e+04
2.196385372416545870e-02 1.669414903219105690e+04
2.273965752357927361e-02 1.621603197464699588e+04
2.354286414322416532e-02 1.573578635780126206e+04
2.437444150122220626e-02 1.525733819117852545e+04
2.523539170434765944e-02 1.478461560929249208e+04
2.612675225563327805e-02 1.432153816031033239e+04
2.704959730463134260e-02 1.387201714078090299e+04
2.800503894183630979e-02 1.343994301717964299e+04
2.899422853882876669e-02 1.302830253232476571e+04
3.001835813575589110e-02 1.263862039666489000e+04
3.107866187782012263e-02 1.227228621906853732e+04
3.217641750250735400e-02 1.193068878348888938e+04
3.331294787934673679e-02 1.161478097333182450e+04
3.448962260405757929e-02 1.132326957079534077e+04
3.570785964900462933e-02 1.105414231101163205e+04
3.696912707195026265e-02 1.080487693971252338e+04
3.827494478516311333e-02 1.057143264771410031e+04
3.962688638701478139e-02 1.034922456271843475e+04
4.102658105827192148e-02 1.013250510583968571e+04
4.247571552536898165e-02 9.915124723789893324e+03
4.397603609302719319e-02 9.690761034658495191e+03
4.552935074866947679e-02 9.453405423699139646e+03
4.713753134116724364e-02 9.197806634164688148e+03
4.880251583654431069e-02 8.920151258726564265e+03
5.052631065335679711e-02 8.618665262851283842e+03
5.231099308056260527e-02 8.293963600465165655e+03
5.415871378079470388e-02 7.949437293675665387e+03
5.607169938205457810e-02 7.591161935089020517e+03
5.805225516094898730e-02 7.227402107080256428e+03
6.010276782070381879e-02 6.867966887131929980e+03
6.222570836730228344e-02 6.522861014035261178e+03
6.442363508721370147e-02 6.201698038522266870e+03
6.669919663030121626e-02 5.912277600604893451e+03
6.905513520162327723e-02 5.659237995482425504e+03
7.149428986597576585e-02 5.443878711356052918e+03
7.401959996915641327e-02 5.263316028883634317e+03
7.663410868007454468e-02 5.111527882079065421e+03
7.934096665797492343e-02 4.979322757557063596e+03
8.214343584919425734e-02 4.855810589988183892e+03
8.504489341802677627e-02 4.729608472825647368e+03
8.804883581643460633e-02 4.592079741586458113e+03
9.115888299750818380e-02 4.438296467751130876e+03
9.437878277775381408e-02 4.269317325547955079e+03
9.771241535346496254e-02 4.091205139695214712e+03
1.011637979766207007e-01 3.913544185017375639e+03
1.047370897959449682e-01 3.746355049984977086e+03
1.084365968689609827e-01 3.597057939853601965e+03
1.122667773510813566e-01 3.468516123334144140e+03
1.162322468679851811e-01 3.358483036072822415e+03
1.203377840777589275e-01 3.261213627951005947e+03
1.245883364295008178e-01 3.169454330632636811e+03
1.289890261253308079e-01 3.078009895580260036e+03
1.335451562929898806e-01 2.984579619755694239e+03
1.382622173764654905e-01 2.891894956261578955e+03
1.431458937523478470e-01 2.803639332304835989e+03
1.482020705798858529e-01 2.722263787736267659e+03
1.534368408930011640e-01 2.646638311894592334e+03
1.588565129428052836e-01 2.573361982307178550e+03
1.644676177994662813e-01 2.499645280002369418e+03
1.702769172225899463e-01 2.426038367922205907e+03
1.762914118095947891e-01 2.357585320156304078e+03
1.825183494319042588e-01 2.298899689170392776e+03
1.889652339691209604e-01 2.250368849361297180e+03
1.956398343517062877e-01 2.204584340664775937e+03
2.025501939230666404e-01 2.154358913122884132e+03
2.097046401323232889e-01 2.097671928304372159e+03
2.171117945694503171e-01 2.041973506743788221e+03
2.247805833548725263e-01 1.995498039133521161e+03
2.327202478960407328e-01 1.959531498161989020e+03
2.409403560239524456e-01 1.926362263819531563e+03
2.494508135230316670e-01 1.886267945891132968e+03
2.582618760682675041e-01 1.843083188044193776e+03
2.673841615839946395e-01 1.804037668746940199e+03
2.768286630392063907e-01 1.773209757971990484e+03
2.866067616948250185e-01 1.745103358968789735e+03
2.967302408188869367e-01 1.712645324890946995e+03
3.072112998861756261e-01 1.679822350596689375e+03
3.180625692794118997e-01 1.650768293244484084e+03
3.292971255097147942e-01 1.625029016838539974e+03
3.409285069746810781e-01 1.599324971681123316e+03
3.529707302730650254e-01 1.572353793517469512e+03
3.654383070957254454e-01 1.547201551925770673e+03
3.783462617131929107e-01 1.524955998670133795e+03
3.917101490809256625e-01 1.501933792097004471e+03
4.055460735840827891e-01 1.479392843481684849e+03
4.198707084443910054e-01 1.458734694089404002e+03
4.347013158125022092e-01 1.438424692046847440e+03
4.500557675700497251e-01 1.418695604747361813e+03
4.659525668664677434e-01 1.399846463391198995e+03
4.824108704165368522e-01 1.381613468206641755e+03
4.994505115855140120e-01 1.363930478282275544e+03
5.170920242896754893e-01 1.346893655224808981e+03
5.353566677410723784e-01 1.330512342178558583e+03
5.542664520663102001e-01 1.314720800122767741e+03
5.738441648302392561e-01 1.299463054478921777e+03
5.941133984965033532e-01 1.284723037668502911e+03
6.150985788580497493e-01 1.270492940510145900e+03
6.368249944718585853e-01 1.256764138723070346e+03
6.593188271333542128e-01 1.243522071617585880e+03
6.826071834272385841e-01 1.230749554387829448e+03
7.067181273927490848e-01 1.218429391486687791e+03
7.316807143427191962e-01 1.206544402979567622e+03
7.575250258771912826e-01 1.195078494746273009e+03
7.842822061337682005e-01 1.184017377573726208e+03
8.119844993184008874e-01 1.173346933248799587e+03
8.406652885618325355e-01 1.163053044059552576e+03
8.703591361485156774e-01 1.153121592754221865e+03
9.011018251665018353e-01 1.143538443035728960e+03
9.329304026284686024e-01 1.134288322061843701e+03
9.658832241158697984e-01 1.125354212022853289e+03
1.000000000000000000e+00 1.116718947436739654e+03
