# k [h/Mpc]   P(k) [(Mpc/h)^3]
1.000000000000000021e-03 3.298423421802204757e+03
1.035321843295662538e-03 3.371745586092652957e+03
1.071891319205127554e-03 3.447150190434710112e+03
1.109752496412072130e-03 3.524678414092535604e+03
1.148951000187308554e-03 3.604370820673660546e+03
1.189534067370319513e-03 3.686262975361372810e+03
1.231550603292826162e-03 3.770388111325175487e+03
1.275051240713012809e-03 3.856779477016008514e+03
1.320088400831418048e-03 3.945470350635273462e+03
1.366716356462005988e-03 4.036494040967643286e+03
1.414991297434575876e-03 4.129883879170619366e+03
1.464971398307286267e-03 4.225669181038834722e+03
1.516716888470922469e-03 4.323868888579544546e+03
1.570290124729377445e-03 4.424500322408768625e+03
1.625755666443793376e-03 4.527580830395801968e+03
1.683180353330956556e-03 4.633127788133180729e+03
1.742633386009650835e-03 4.741158599407333895e+03
1.804186409392071833e-03 4.851690027567976358e+03
1.867913599020782755e-03 4.964724617780097105e+03
1.933891750455230159e-03 5.080251296523914789e+03
2.002200371815584384e-03 5.198258457426785753e+03
2.072921779595371904e-03 5.318734508282705974e+03
2.146141197858403554e-03 5.441667870720779320e+03
2.221946860939523916e-03 5.567046979878981801e+03
2.300430119772916854e-03 5.694855020892568973e+03
2.381685551976158062e-03 5.825045231975457682e+03
2.465811075822603882e-03 5.957560259063128797e+03
2.552908068239516468e-03 6.092342719987748751e+03
2.643081486974105387e-03 6.229335215113117556e+03
2.736439997074671757e-03 6.368480325875266317e+03
2.833096101839324091e-03 6.509720440137890364e+03
2.933166278390045463e-03 6.652976968440473684e+03
3.036771118035457451e-03 6.798130585416242866e+03
3.144035471591500111e-03 6.945057224609821787e+03
3.255088599835056357e-03 7.093632748927642751e+03
3.370064329271928172e-03 7.243732948271057467e+03
3.489101213406773684e-03 7.395233537312442422e+03
3.612342699709430310e-03 7.548006775594326427e+03
3.739937302478797687e-03 7.701877491498904419e+03
3.872038781812556923e-03 7.856635512957755964e+03
4.008806328898464194e-03 8.012069714798562018e+03
4.150404757850476717e-03 8.167968827548099398e+03
4.297004704320839599e-03 8.324121436087667462e+03
4.448782831127585241e-03 8.480315978770524453e+03
4.605922041145103958e-03 8.636322206232778626e+03
4.768611697714469390e-03 8.791831742435990236e+03
4.937047852839003374e-03 8.946515507846226683e+03
5.111433483440165799e-03 9.100044198513580341e+03
5.291978735958441891e-03 9.252088289735609578e+03
5.478901179593945181e-03 9.402318040795735214e+03
5.672426068491977225e-03 9.550402634420750474e+03
5.872786613189483196e-03 9.695964800557267154e+03
6.080224261649421272e-03 9.838558471715829000e+03
6.294988990221887619e-03 9.977731775829650360e+03
6.517339604882419792e-03 1.011303259747477205e+04
6.747544053110693212e-03 1.024400859601465709e+04
6.985879746785249485e-03 1.037020722596496853e+04
7.232633896483533706e-03 1.049116839320115287e+04
7.488103857590022727e-03 1.060636006970772905e+04
7.752597488629464108e-03 1.071520958475160842e+04
8.026433522257174491e-03 1.081714366099989275e+04
8.309941949353395751e-03 1.091158891113836034e+04
8.603464416684501043e-03 1.099797188335592182e+04
8.907354638610439843e-03 1.107571910857824696e+04
9.221978823334321326e-03 1.114425302370587451e+04
9.547716114208055702e-03 1.120298326780259595e+04
9.884959046625585791e-03 1.125131712287413757e+04
1.023411402105453213e-02 1.128866208629098765e+04
1.059560179277615859e-02 1.131442594089839622e+04
1.096985797892383561e-02 1.132801682899943989e+04
1.135733358343105071e-02 1.132884714073097348e+04
1.175849554052156402e-02 1.131644199221164490e+04
1.217382727739661427e-02 1.129045492163762719e+04
1.260382929679727468e-02 1.125054706011014059e+04
1.304901978014402254e-02 1.119638023160441480e+04
1.350993521198026563e-02 1.112761700677461522e+04
1.398713102647237971e-02 1.104392075802827094e+04
1.448118227674533715e-02 1.094502385374547521e+04
1.499268432786045671e-02 1.083113688256632304e+04
1.552225357427047120e-02 1.070267517571263488e+04
1.607052818261638441e-02 1.056005533166444366e+04
1.663816886076128349e-02 1.040369438170965077e+04
1.722585965398786695e-02 1.023400972739396821e+04
1.783430876931909465e-02 1.005142025697949066e+04
1.846424942895543569e-02 9.856656073646785444e+03
1.911644075385701691e-02 9.651173747484475825e+03
1.979166867853556291e-02 9.436532558603899815e+03
2.049074689815847186e-02 9.214290636943260324e+03
2.121451784910629787e-02 8.986004816404507437e+03
2.196385372416545870e-02 8.753230515696366638e+03
2.273965752357927361e-02 8.517533547868417372e+03
2.354286414322416532e-02 8.280683509634147413e+03
2.437444150122220626e-02 8.044621445932913957e+03
2.523539170434765944e-02 7.811291779102653891e+03
2.612675225563327805e-02 7.582636904429170499e+03
2.704959730463134260e-02 7.360597269236116517e+03
2.800503894183630979e-02 7.147105109092095518e+03
2.899422853882876669e-02 6.943653599175067029e+03
3.001835813575589110e-02 6.751023755804157190e+03
3.107866187782012263e-02 6.569931044902993563e+03
3.217641750250735400e-02 6.401090745916508240e+03
3.331294787934673679e-02 6.245001583030701113e+03
3.448962260405757929e-02 6.101045491816540562e+03
3.570785964900462933e-02 5.968245896946781613e+03
3.696912707195026265e-02 5.845367356233275132e+03
3.827494478516311333e-02 5.730405745459621357e+03
3.962688638701478139e-02 5.621080620554881534e+03
4.102658105827192148e-02 5.514522881243306074e+03
4.247571552536898165e-02 5.407634689741954389e+03
4.397603609302719319e-02 5.297174307923711240e+03
4.552935074866947679e-02 5.180039675382599853e+03
4.713753134116724364e-02 5.053490903600379170e+03
4.880251583654431069e-02 4.915480076062172884e+03
5.052631065335679711e-02 4.764949772178524654e+03
5.231099308056260527e-02 4.602085643214764787e+03
5.415871378079470388e-02 4.428493682041305874e+03
5.607169938205457810e-02 4.247144102159672002e+03
5.805225516094898730e-02 4.062196653496740510e+03
6.010276782070381879e-02 3.878728526278752724e+03
6.222570836730228344e-02 3.702048015264238529e+03
6.442363508721370147e-02 3.537320765050599675e+03
6.669919663030121626e-02 3.388788826261989925e+03
6.905513520162327723e-02 3.259173917010713467e+03
7.149428986597576585e-02 3.149553783638446021e+03
7.401959996915641327e-02 3.058791524803096308e+03
7.663410868007454468e-02 2.983947225023852297e+03
7.934096665797492343e-02 2.920131785051270526e+03
8.214343584919425734e-02 2.861354337414673864e+03
8.504489341802677627e-02 2.801112797251538723e+03
8.804883581643460633e-02 2.734032472648450494e+03
9.115888299750818380e-02 2.656646798569736347e+03
9.437878277775381408e-02 2.568868610088919468e+03
9.771241535346496254e-02 2.473743008698303129e+03
1.011637979766207007e-01 2.376856373081172023e+03
1.047370897959449682e-01 2.284744868653624053e+03
1.084365968689609827e-01 2.202934253285433442e+03
1.122667773510813566e-01 2.134474837679499615e+03
1.162322468679851811e-01 2.079117092305495134e+03
1.203377840777589275e-01 2.033714492484274160e+03
1.245883364295008178e-01 1.993168801319920021e+03
1.289890261253308079e-01 1.952268757214722655e+03
1.335451562929898806e-01 1.906987691331332826e+03
1.382622173764654905e-01 1.857413434239510707e+03
1.431458937523478470e-01 1.806115197669147165e+03
1.482020705798858529e-01 1.757398888685801921e+03
1.534368408930011640e-01 1.713931295753048062e+03
1.588565129428052836e-01 1.676482450890833661e+03
1.644676177994662813e-01 1.643354582977827704e+03
1.702769172225899463e-01 1.612234252517567484e+03
1.762914118095947891e-01 1.581320255606304727e+03
1.825183494319042588e-01 1.550595793208663508e+03
1.889652339691209604e-01 1.521124250685672450e+03
1.956398343517062877e-01 1.493630967495275172e+03
2.025501939230666404e-01 1.467953766093576633e+03
2.097046401323232889e-01 1.443271577745085324e+03
2.171117945694503171e-01 1.419659594491691223e+03
2.247805833548725263e-01 1.397657880290760204e+03
2.327202478960407328e-01 1.377722001778278582e+03
2.409403560239524456e-01 1.359067688459365399e+03
2.494508135230316670e-01 1.340397482776437300e+03
2.582618760682675041e-01 1.322046383108660848e+03
2.673841615839946395e-01 1.304916596071670938e+03
2.768286630392063907e-01 1.289723347121991992e+03
2.866067616948250185e-01 1.275572669175438932e+03
2.967302408188869367e-01 1.261252694246236160e+03
3.072112998861756261e-01 1.247381049364516457e+03
3.180625692794118997e-01 1.234637283269714544e+03
3.292971255097147942e-01 1.222959838884785086e+03
3.409285069746810781e-01 1.211709849958125460e+03
3.529707302730650254e-01 1.200595741547917896e+03
3.654383070957254454e-01 1.190193723392552783e+03
3.783462617131929107e-01 1.180693017941257494e+03
3.917101490809256625e-01 1.171356115758933811e+03
4.055460735840827891e-01 1.162411207702061574e+03
4.198707084443910054e-01 1.154112844209989134e+03
4.347013158125022092e-01 1.146141916120820952e+03
4.500557675700497251e-01 1.138531031937981197e+03
4.659525668664677434e-01 1.131324364669202623e+03
4.824108704165368522e-01 1.124452479696028604e+03
4.994505115855140120e-01 1.117888919802960345e+03
5.170920242896754893e-01 1.111642175557981091e+03
5.353566677410723784e-01 1.105703013552993298e+03
5.542664520663102001e-01 1.100046839721315337e+03
5.738441648302392561e-01 1.094651445993658626e+03
5.941133984965033532e-01 1.089504076300134784e+03
6.150985788580497493e-01 1.084593930728659871e+03
6.368249944718585853e-01 1.079910241963273165e+03
6.593188271333542128e-01 1.075442477611408549e+03
6.826071834272385841e-01 1.071180209251822589e+03
7.067181273927490848e-01 1.067113009183589156e+03
7.316807143427191962e-01 1.063230461429302295e+03
7.575250258771912826e-01 1.059522991435122776e+03
7.842822061337682005e-01 1.055982423517695224e+03
8.119844993184008874e-01 1.052600714271088236e+03
8.406652885618325355e-01 1.049369820388129710e+03
8.703591361485156774e-01 1.046281698691193697e+03
9.011018251665018353e-01 1.043328312730150628e+03
9.329304026284686024e-01 1.040502014661811927e+03
9.658832241158697984e-01 1.037795753165765518e+03
1.000000000000000000e+00 1.035202527630230179e+03
