# k [h/Mpc]    P(k) [(Mpc/h)^3]
1.000000000000000021e-03 1.794695540368577349e+04
1.027459485446180097e-03 1.839205065963901507e+04
1.055672994233329033e-03 1.884695951683038220e+04
1.084661231454404472e-03 1.931182518234043891e+04
1.114445470753562583e-03 1.978678950498529593e+04
1.145047569938281197e-03 2.027199162421874280e+04
1.176489987020186466e-03 2.076756066819603802e+04
1.208795796696343801e-03 2.127361936982879342e+04
1.241988707283130794e-03 2.179028695613435411e+04
1.276093078115091931e-03 2.231767886609011839e+04
1.311133937421564335e-03 2.285590644829862504e+04
1.347137000694184497e-03 2.340507664995552477e+04
1.384128689558757194e-03 2.396529169723657469e+04
1.422136151165336168e-03 2.453664870563284421e+04
1.461187278110747181e-03 2.511923529098074141e+04
1.501310728908172810e-03 2.571312622809945969e+04
1.542535949018822338e-03 2.631838854810932753e+04
1.584893192461114082e-03 2.693508168758700049e+04
1.628413544013250025e-03 2.756325706926492421e+04
1.673128942025444267e-03 2.820295767537588836e+04
1.719072201858574652e-03 2.885421761413399508e+04
1.766277039966442823e-03 2.951706167989101596e+04
1.814778098639323453e-03 3.019150351503893035e+04
1.864610971426956289e-03 3.087753661745514546e+04
1.915812229259642330e-03 3.157513857815695519e+04
1.968419447286611293e-03 3.228427440924977418e+04
2.022471232451355985e-03 3.300489603874489694e+04
2.078007251824171529e-03 3.373694179008701030e+04
2.135068261712696168e-03 3.448033586129268951e+04
2.193696137571797024e-03 3.523498780487895419e+04
2.253933904734791056e-03 3.600079188326193980e+04
2.315825769988507938e-03 3.677761824826879456e+04
2.379417154015395913e-03 3.756530639304297802e+04
2.444754724726473216e-03 3.836367593665843742e+04
2.511886431509579437e-03 3.917252721603808459e+04
2.580861540418074272e-03 3.999164073571535118e+04
2.651730670325789813e-03 4.082077663153562025e+04
2.724545830074793281e-03 4.165967415042826178e+04
2.799360456643182338e-03 4.250805114845650678e+04
2.876229454360987748e-03 4.336560026356593153e+04
2.955209235202887856e-03 4.423196803308661038e+04
3.036357760187358319e-03 4.510676600458599569e+04
3.119734581912619095e-03 4.598957954795270052e+04
3.205400888260593294e-03 4.687996745251292305e+04
3.293419547300957713e-03 4.777746153141139075e+04
3.383855153428233075e-03 4.868156626979304565e+04
3.476774074765777087e-03 4.959175852017290163e+04
3.572244501871464119e-03 5.050748684476819471e+04
3.670336497780800258e-03 5.142814492178204091e+04
3.771122049424195655e-03 5.235305272550543305e+04
3.874675120456132216e-03 5.328149289034609683e+04
3.981071705534973415e-03 5.421271434694650816e+04
4.090389886093310536e-03 5.514593235530085076e+04
4.202709887639691569e-03 5.608032863175403327e+04
4.318114138633850560e-03 5.701505157463722571e+04
4.436687330978611628e-03 5.794921659317198646e+04
4.558516482172869644e-03 5.888189679652937048e+04
4.683690999171267327e-03 5.981206448425943381e+04
4.812302743997420168e-03 6.073862662152203848e+04
4.944446101158830355e-03 6.166045297044870676e+04
5.080218046913023006e-03 6.257637721324439917e+04
5.219718220435652298e-03 6.348519814616201620e+04
5.363048996942865534e-03 6.438568104619439691e+04
5.510315562821568869e-03 6.527655921467339795e+04
5.661625992822727667e-03 6.615653456967686361e+04
5.817091329374357578e-03 6.702420595219350071e+04
5.976825664072413224e-03 6.787802131073192868e+04
6.140946221409365226e-03 6.871638401179530774e+04
6.309573444801930275e-03 6.953766623835220526e+04
6.482831084981073057e-03 7.034021226783911698e+04
6.660846290809154316e-03 7.112234203300077934e+04
6.843749702590877504e-03 7.188235496482107555e+04
7.031675547946470567e-03 7.261853411509384750e+04
7.224761740317567349e-03 7.332912527799881354e+04
7.423149980177935758e-03 7.401219029736924858e+04
7.626985859023443712e-03 7.466570694387030380e+04
7.836418966217518697e-03 7.528764683292535483e+04
8.051602998770538214e-03 7.587598238342280092e+04
8.272695874133697766e-03 7.642869388554543548e+04
8.499859846090154769e-03 7.694377691170644539e+04
8.733261623828437667e-03 7.741925004748305946e+04
8.973072494285637066e-03 7.785316044850765320e+04
9.219468447849992962e-03 7.824343305143287580e+04
9.472630307515245152e-03 7.858777869754662970e+04
9.732743861581504355e-03 7.888393568363449594e+04
1.000000000000000021e-02 7.912970432875311235e+04
1.027459485446180140e-02 7.932295900091546355e+04
1.055672994233329033e-02 7.946166039325723250e+04
1.084661231454404559e-02 7.954386797670058149e+04
1.114445470753563060e-02 7.956775254969736852e+04
1.145047569938281717e-02 7.953158728051780781e+04
1.176489987020185903e-02 7.943363379966566572e+04
1.208795796696343280e-02 7.927224169033790531e+04
1.241988707283130100e-02 7.904592459342534130e+04
1.276093078115091844e-02 7.875337402472840040e+04
1.311133937421564422e-02 7.839347253832437855e+04
1.347137000694184628e-02 7.796530632392669213e+04
1.384128689558757237e-02 7.746817710554160294e+04
1.422136151165336211e-02 7.690161709291486477e+04
1.461187278110747875e-02 7.626564603220520075e+04
1.501310728908173547e-02 7.556091702544645523e+04
1.542535949018821427e-02 7.478834384140089969e+04
1.584893192461113431e-02 7.394906475479478831e+04
1.628413544013249115e-02 7.304444158710318152e+04
1.673128942025444224e-02 7.207605745584703982e+04
1.719072201858574608e-02 7.104571321208475274e+04
1.766277039966442780e-02 6.995542255623052188e+04
1.814778098639323323e-02 6.880770983659896592e+04
1.864610971426956115e-02 6.760733318390141358e+04
1.915812229259642244e-02 6.635991463288151135e+04
1.968419447286612334e-02 6.507100154768022185e+04
2.022471232451356765e-02 6.374603411872716242e+04
2.078007251824172744e-02 6.239031885252445500e+04
2.135068261712695301e-02 6.100900497560673830e+04
2.193696137571795809e-02 5.960706375418112293e+04
2.253933904734791230e-02 5.818930649262411316e+04
2.315825769988507851e-02 5.676230717475232086e+04
2.379417154015396260e-02 5.533513640204747935e+04
2.444754724726472955e-02 5.391636605663882801e+04
2.511886431509579437e-02 5.251380909473866632e+04
2.580861540418074099e-02 5.113453423525080871e+04
2.651730670325791461e-02 4.978489091146273859e+04
2.724545830074791633e-02 4.847054281461426581e+04
2.799360456643180950e-02 4.719651031661676825e+04
2.876229454360986273e-02 4.596731862210638792e+04
2.955209235202886295e-02 4.478708824991410802e+04
3.036357760187358493e-02 4.365943224446449312e+04
3.119734581912619181e-02 4.258750132705549913e+04
3.205400888260593467e-02 4.157404490239527513e+04
3.293419547300957539e-02 4.062110965906175988e+04
3.383855153428233509e-02 3.972699643736812141e+04
3.476774074765778821e-02 3.888816267297301965e+04
3.572244501871466027e-02 3.810130881600766588e+04
3.670336497780802426e-02 3.736206689245258895e+04
3.771122049424197736e-02 3.666269787602659198e+04
3.874675120456130134e-02 3.599532631965247856e+04
3.981071705534973415e-02 3.535067511864705011e+04
4.090389886093310362e-02 3.471753369913614006e+04
4.202709887639691222e-02 3.408460898819746944e+04
4.318114138633850907e-02 3.343952750888605806e+04
4.436687330978611454e-02 3.277029446435212594e+04
4.558516482172869644e-02 3.206524248940318284e+04
4.683690999171270103e-02 3.131407105171168951e+04
4.812302743997418086e-02 3.050835488856921074e+04
4.944446101158827406e-02 2.964245141583263467e+04
5.080218046913020230e-02 2.871381821987852527e+04
5.219718220435649175e-02 2.772398433812606163e+04
5.363048996942865881e-02 2.667858638754408094e+04
5.510315562821568869e-02 2.558735203173701666e+04
5.661625992822727493e-02 2.446416619020482540e+04
5.817091329374357578e-02 2.332625728880498355e+04
5.976825664072413224e-02 2.219317111861167723e+04
6.140946221409365052e-02 2.108571400888953940e+04
6.309573444801933051e-02 2.002462858394172872e+04
6.482831084981076353e-02 1.902891913668957204e+04
6.660846290809158132e-02 1.811450732715400227e+04
6.843749702590873341e-02 1.729305669463723825e+04
7.031675547946467097e-02 1.657085403007092464e+04
7.224761740317567349e-02 1.594812501046438410e+04
7.423149980177935758e-02 1.541872244573123135e+04
7.626985859023444059e-02 1.497017819428259099e+04
7.836418966217519044e-02 1.458414686779616568e+04
8.051602998770537867e-02 1.423734939452265462e+04
8.272695874133702276e-02 1.390341129072273725e+04
8.499859846090150606e-02 1.355563588801855258e+04
8.733261623828432463e-02 1.317011955024637973e+04
8.973072494285633249e-02 1.272899649487013812e+04
9.219468447849987758e-02 1.222412217094712105e+04
9.472630307515245152e-02 1.165867540676839963e+04
9.732743861581504008e-02 1.104717235637143676e+04
1.000000000000000056e-01 1.041338320636830395e+04
1.027459485446180071e-01 9.786439370210002380e+03
1.055672994233329137e-01 9.196016898813539228e+03
1.084661231454404490e-01 8.667108233471588392e+03
1.114445470753562539e-01 8.215658559246719960e+03
1.145047569938281162e-01 7.846005217809541136e+03
1.176489987020185313e-01 7.549987211537321855e+03
1.208795796696343905e-01 7.308377474997791978e+03
1.241988707283130794e-01 7.095354588865433470e+03
1.276093078115091983e-01 6.881466560105144708e+03
1.311133937421564422e-01 6.639725435806740279e+03
1.347137000694184628e-01 6.354565719643660486e+03
1.384128689558757064e-01 6.027500604433907029e+03
1.422136151165336038e-01 5.675297292741249294e+03
1.461187278110747112e-01 5.323627174518920583e+03
1.501310728908172853e-01 4.997819856085227912e+03
1.542535949018820629e-01 4.715989904340089197e+03
1.584893192461114264e-01 4.484917568416047288e+03
1.628413544013249947e-01 4.298286747595411725e+03
1.673128942025444155e-01 4.137851969599545555e+03
1.719072201858574678e-01 3.980523864042895639e+03
1.766277039966442919e-01 3.808225728855686611e+03
1.814778098639323323e-01 3.614445647994469709e+03
1.864610971426956254e-01 3.406034189663410871e+03
1.915812229259642452e-01 3.199680316210454293e+03
1.968419447286611224e-01 3.013357506234203356e+03
2.022471232451355794e-01 2.855472424823566598e+03
2.078007251824171564e-01 2.722315739736434352e+03
2.135068261712696203e-01 2.601941756499767507e+03
2.193696137571796989e-01 2.480975532450022456e+03
2.253933904734791160e-01 2.351930684228604605e+03
2.315825769988507921e-01 2.218253267647618031e+03
2.379417154015396052e-01 2.089214769919148239e+03
2.444754724726473094e-01 1.973004148630620421e+03
2.511886431509579576e-01 1.871443433825597594e+03
2.580861540418074029e-01 1.778643947836699226e+03
2.651730670325789796e-01 1.687531910540521039e+03
2.724545830074790453e-01 1.595407831860221449e+03
2.799360456643182338e-01 1.504719710194324307e+03
2.876229454360987869e-01 1.419993395257993143e+03
2.955209235202888030e-01 1.342853208089943337e+03
3.036357760187358701e-01 1.271454177603685139e+03
3.119734581912619320e-01 1.202879208359759559e+03
3.205400888260593328e-01 1.135550513035022732e+03
3.293419547300957539e-01 1.071051568300351846e+03
3.383855153428233509e-01 1.010941923493448371e+03
3.476774074765777156e-01 9.552310698605519974e+02
3.572244501871464362e-01 9.019996019934131937e+02
3.670336497780800622e-01 8.508855981258504926e+02
3.771122049424199818e-01 8.023508870573855347e+02
3.874675120456131938e-01 7.568058239058840400e+02
3.981071705534973137e-01 7.139428182629623052e+02
4.090389886093310223e-01 6.731027375811779621e+02
4.202709887639691777e-01 6.343464136894934882e+02
4.318114138633850629e-01 5.978490183617875573e+02
4.436687330978611454e-01 5.633958432750499696e+02
4.558516482172869644e-01 5.307528852544799065e+02
4.683690999171267744e-01 4.998665226716602774e+02
4.812302743997415866e-01 4.707127736265568387e+02
4.944446101158824769e-01 4.432067491854778041e+02
5.080218046913023144e-01 4.172376673206445616e+02
5.219718220435651812e-01 3.927089050218914963e+02
5.363048996942866298e-01 3.695475435395943578e+02
5.510315562821569424e-01 3.476870758603594140e+02
5.661625992822727493e-01 3.270628470340185459e+02
5.817091329374357578e-01 3.076099815336927463e+02
5.976825664072412669e-01 2.892655911672628690e+02
6.140946221409364636e-01 2.719699134371639389e+02
6.309573444801930275e-01 2.556661808057329210e+02
6.482831084981072189e-01 2.403005368596894300e+02
6.660846290809153691e-01 2.258218730848464588e+02
6.843749702590877781e-01 2.121816629671544092e+02
7.031675547946470983e-01 1.993338448432200494e+02
7.224761740317566794e-01 1.872347098505596534e+02
7.423149980177935481e-01 1.758427959311422626e+02
7.626985859023444059e-01 1.651187918494490532e+02
7.836418966217518767e-01 1.550254283778211857e+02
8.051602998770538422e-01 1.455273786618086831e+02
8.272695874133697558e-01 1.365911666779874736e+02
8.499859846090145332e-01 1.281850793394154095e+02
8.733261623828428855e-01 1.202790821450458054e+02
8.973072494285637690e-01 1.128447382409236752e+02
9.219468447849992199e-01 1.058551257991482970e+02
9.472630307515245152e-01 9.928475999999388080e+01
9.732743861581504285e-01 9.310953305201441310e+01
1.000000000000000000e+00 8.730664701411544115e+01
