# k [h/Mpc]    P(k) [(Mpc/h)^3]
1.000000000000000021e-03 6.701489365958354028e+03
1.027459485446180097e-03 6.868706929365217547e+03
1.055672994233329033e-03 7.039624615701251969e+03
1.084661231454404472e-03 7.214294138933507384e+03
1.114445470753562583e-03 7.392766459769687572e+03
1.145047569938281197e-03 7.575091436034614162e+03
1.176489987020186466e-03 7.761316113032908106e+03
1.208795796696343801e-03 7.951485498329416259e+03
1.241988707283130794e-03 8.145643175443989094e+03
1.276093078115091931e-03 8.343831191136658163e+03
1.311133937421564335e-03 8.546089936667838629e+03
1.347137000694184497e-03 8.752458025731217276e+03
1.384128689558757194e-03 8.962972169114107601e+03
1.422136151165336168e-03 9.177667030945209262e+03
1.461187278110747181e-03 9.396574087422475714e+03
1.501310728908172810e-03 9.619720739463393329e+03
1.542535949018822338e-03 9.847131535702192195e+03
1.584893192461114082e-03 1.007882815976904021e+04
1.628413544013250025e-03 1.031482927404527254e+04
1.673128942025444267e-03 1.055515036076473007e+04
1.719072201858574652e-03 1.079980356064860644e+04
1.766277039966442823e-03 1.104879750927697387e+04
1.814778098639323453e-03 1.130213669719081554e+04
1.864610971426956289e-03 1.155981838000408243e+04
1.915812229259642330e-03 1.182183400777710813e+04
1.968419447286611293e-03 1.208817035361996750e+04
2.022471232451355985e-03 1.235880932765155558e+04
2.078007251824171529e-03 1.263372778568058857e+04
2.135068261712696168e-03 1.291289733783201518e+04
2.193696137571797024e-03 1.319628415755255628e+04
2.253933904734791056e-03 1.348384874126834802e+04
2.315825769988507938e-03 1.377554239520632837e+04
2.379417154015395913e-03 1.407130461282825127e+04
2.444754724726473216e-03 1.437106741948198942e+04
2.511886431509579437e-03 1.467475562950184576e+04
2.580861540418074272e-03 1.498228664248318455e+04
2.651730670325789813e-03 1.529357024485046531e+04
2.724545830074793281e-03 1.560850841751024382e+04
2.799360456643182338e-03 1.592699515040824190e+04
2.876229454360987748e-03 1.624891504311092103e+04
2.955209235202887856e-03 1.657413564401627809e+04
3.036357760187358319e-03 1.690251150842396601e+04
3.119734581912619095e-03 1.723388743963478555e+04
3.205400888260593294e-03 1.756809834126392889e+04
3.293419547300957713e-03 1.790496907221307993e+04
3.383855153428233075e-03 1.824431431796526886e+04
3.476774074765777087e-03 1.858593847944683876e+04
3.572244501871464119e-03 1.892963543187979303e+04
3.670336497780800258e-03 1.927517862869270539e+04
3.771122049424195655e-03 1.962231404488865519e+04
3.874675120456132216e-03 1.997077374923284151e+04
3.981071705534973415e-03 2.032027726998764410e+04
4.090389886093310536e-03 2.067053160912056410e+04
4.202709887639691569e-03 2.102123129132928807e+04
4.318114138633850560e-03 2.137205844963098207e+04
4.436687330978611628e-03 2.172268294921737470e+04
4.558516482172869644e-03 2.207275880965660690e+04
4.683690999171267327e-03 2.242190163792658859e+04
4.812302743997420168e-03 2.276970224929220058e+04
4.944446101158830355e-03 2.311573753302440309e+04
5.080218046913023006e-03 2.345957087405681887e+04
5.219718220435652298e-03 2.380075259914062190e+04
5.363048996942865534e-03 2.413882048748732268e+04
5.510315562821568869e-03 2.447330034745850207e+04
5.661625992822727667e-03 2.480370623634797448e+04
5.817091329374357578e-03 2.512951331842667423e+04
5.976825664072413224e-03 2.545013960731277984e+04
6.140946221409365226e-03 2.576498629092413103e+04
6.309573444801930275e-03 2.607344281957230851e+04
6.482831084981073057e-03 2.637488813331170968e+04
6.660846290809154316e-03 2.666869199543642389e+04
6.843749702590877504e-03 2.695421643186031361e+04
7.031675547946470567e-03 2.723081727547866831e+04
7.224761740317567349e-03 2.749783648968422858e+04
7.423149980177935758e-03 2.775454782677151525e+04
7.626985859023443712e-03 2.800019373563135741e+04
7.836418966217518697e-03 2.823401432971364193e+04
8.051602998770538214e-03 2.845524999032596315e+04
8.272695874133697766e-03 2.866314400962405125e+04
8.499859846090154769e-03 2.885694536190334111e+04
8.733261623828437667e-03 2.903591159457072354e+04
8.973072494285637066e-03 2.919931090114185645e+04
9.219468447849992962e-03 2.934636484591570843e+04
9.472630307515245152e-03 2.947621311922055611e+04
9.732743861581504355e-03 2.958800539594435759e+04
1.000000000000000021e-02 2.968091447230482663e+04
1.027459485446180140e-02 2.975414078244983466e+04
1.055672994233329033e-02 2.980691700998538363e+04
1.084661231454404559e-02 2.983851276707186116e+04
1.114445470753563060e-02 2.984823931130480196e+04
1.145047569938281717e-02 2.983544630992570092e+04
1.176489987020185903e-02 2.979947957548551494e+04
1.208795796696343280e-02 2.973971797817869810e+04
1.241988707283130100e-02 2.965560184050619500e+04
1.276093078115091844e-02 2.954663812993909232e+04
1.311133937421564422e-02 2.941240540645326837e+04
1.347137000694184628e-02 2.925255855875619091e+04
1.384128689558757237e-02 2.906683327939082301e+04
1.422136151165336211e-02 2.885505166770573123e+04
1.461187278110747875e-02 2.861721837392708767e+04
1.501310728908173547e-02 2.835357564734527477e+04
1.542535949018821427e-02 2.806446362703986597e+04
1.584893192461113431e-02 2.775030673466962617e+04
1.628413544013249115e-02 2.741161333106884558e+04
1.673128942025444224e-02 2.704897488812061783e+04
1.719072201858574608e-02 2.666306466813751831e+04
1.766277039966442780e-02 2.625463590689860575e+04
1.814778098639323323e-02 2.582463312267763104e+04
1.864610971426956115e-02 2.537483917915753773e+04
1.915812229259642244e-02 2.490736249958833287e+04
1.968419447286612334e-02 2.442428374999553125e+04
2.022471232451356765e-02 2.392764360989967463e+04
2.078007251824172744e-02 2.341943281529332671e+04
2.135068261712695301e-02 2.290158329379633142e+04
2.193696137571795809e-02 2.237596039277972523e+04
2.253933904734791230e-02 2.184436948211518757e+04
2.315825769988507851e-02 2.130927624082202601e+04
2.379417154015396260e-02 2.077408522906784856e+04
2.444754724726472955e-02 2.024201471402388779e+04
2.511886431509579437e-02 1.971599840211882838e+04
2.580861540418074099e-02 1.919869090913060791e+04
2.651730670325791461e-02 1.869247708492787933e+04
2.724545830074791633e-02 1.819948456614772294e+04
2.799360456643180950e-02 1.772159965022799224e+04
2.876229454360986273e-02 1.726052233979105586e+04
2.955209235202886295e-02 1.681780023020130466e+04
3.036357760187358493e-02 1.639479059239486014e+04
3.119734581912619181e-02 1.599267732483614600e+04
3.205400888260593467e-02 1.561249381888328026e+04
3.293419547300957539e-02 1.525501047267993999e+04
3.383855153428233509e-02 1.491959532215261424e+04
3.476774074765778821e-02 1.460492481476367357e+04
3.572244501871466027e-02 1.430976606697461830e+04
3.670336497780802426e-02 1.403247983352651499e+04
3.771122049424197736e-02 1.377014590060397677e+04
3.874675120456130134e-02 1.351979117813905214e+04
3.981071705534973415e-02 1.327793451090624512e+04
4.090389886093310362e-02 1.304039025734031748e+04
4.202709887639691222e-02 1.280293377659521502e+04
4.318114138633850907e-02 1.256091171725097774e+04
4.436687330978611454e-02 1.230980765256693485e+04
4.558516482172869644e-02 1.204522439616237170e+04
4.683690999171270103e-02 1.176328797731080704e+04
4.812302743997418086e-02 1.146084454405130055e+04
4.944446101158827406e-02 1.113577370777560282e+04
5.080218046913020230e-02 1.078711394390511487e+04
5.219718220435649175e-02 1.041544573332900654e+04
5.363048996942865881e-02 1.002288822540611727e+04
5.510315562821568869e-02 9.613091445321528226e+03
5.661625992822727493e-02 9.191269816779653411e+03
5.817091329374357578e-02 8.763896798805295475e+03
5.976825664072413224e-02 8.338317546991564086e+03
6.140946221409365052e-02 7.922350912811095441e+03
6.309573444801933051e-02 7.523797102871875722e+03
6.482831084981076353e-02 7.149789172483688162e+03
6.660846290809158132e-02 6.806304939839669714e+03
6.843749702590873341e-02 6.497745047531272576e+03
7.031675547946467097e-02 6.226467833203918417e+03
7.224761740317567349e-02 5.992551684614139049e+03
7.423149980177935758e-02 5.793696499619861243e+03
7.626985859023444059e-02 5.625228319258616466e+03
7.836418966217519044e-02 5.480235307508138249e+03
8.051602998770537867e-02 5.349974180760083982e+03
8.272695874133702276e-02 5.224563313464927887e+03
8.499859846090150606e-02 5.093946373906179360e+03
8.733261623828432463e-02 4.949106814242221844e+03
8.973072494285633249e-02 4.783390418502539433e+03
9.219468447849987758e-02 4.593707389252662324e+03
9.472630307515245152e-02 4.381254754815307024e+03
9.732743861581504008e-02 4.151493830929524847e+03
1.000000000000000056e-01 3.913352858159958942e+03
1.027459485446180071e-01 3.677781029714013584e+03
1.055672994233329137e-01 3.455923763871206575e+03
1.084661231454404490e-01 3.257180265496992888e+03
1.114445470753562539e-01 3.087542902309324290e+03
1.145047569938281162e-01 2.948641726047803786e+03
1.176489987020185313e-01 2.837413242657128649e+03
1.208795796696343905e-01 2.746630618973954370e+03
1.241988707283130794e-01 2.666590223527849048e+03
1.276093078115091983e-01 2.586220276858031411e+03
1.311133937421564422e-01 2.495382595113699153e+03
1.347137000694184628e-01 2.388226636294790296e+03
1.384128689558757064e-01 2.265317180139349603e+03
1.422136151165336038e-01 2.132965391042611827e+03
1.461187278110747112e-01 2.000800740509045454e+03
1.501310728908172853e-01 1.878357228823728747e+03
1.542535949018820629e-01 1.772446393378094172e+03
1.584893192461114264e-01 1.685606540647165275e+03
1.628413544013249947e-01 1.615468373244800432e+03
1.673128942025444155e-01 1.555177655567618331e+03
1.719072201858574678e-01 1.496054219864414563e+03
1.766277039966442919e-01 1.431300370453222740e+03
1.814778098639323323e-01 1.358472551556394819e+03
1.864610971426956254e-01 1.280148378849720075e+03
1.915812229259642452e-01 1.202593364387732663e+03
1.968419447286611224e-01 1.132568587099170827e+03
2.022471232451355794e-01 1.073229933507986971e+03
2.078007251824171564e-01 1.023184319592782231e+03
2.135068261712696203e-01 9.779450490462708103e+02
2.193696137571796989e-01 9.324827438139773221e+02
2.253933904734791160e-01 8.839830668324466387e+02
2.315825769988507921e-01 8.337414676126682025e+02
2.379417154015396052e-01 7.852443985795966910e+02
2.444754724726473094e-01 7.415681991908952568e+02
2.511886431509579576e-01 7.033959641539238419e+02
2.580861540418074029e-01 6.685185186200063754e+02
2.651730670325789796e-01 6.342736808278342551e+02
2.724545830074790453e-01 5.996487561438570992e+02
2.799360456643182338e-01 5.655646865672615604e+02
2.876229454360987869e-01 5.337190772667601095e+02
2.955209235202888030e-01 5.047255605763190829e+02
3.036357760187358701e-01 4.778907045382453020e+02
3.119734581912619320e-01 4.521169867708868537e+02
3.205400888260593328e-01 4.268112399044108543e+02
3.293419547300957539e-01 4.025687341566151645e+02
3.383855153428233509e-01 3.799762211816875492e+02
3.476774074765777156e-01 3.590376331861148742e+02
3.572244501871464362e-01 3.390308048644531027e+02
3.670336497780800622e-01 3.198189934850889244e+02
3.771122049424199818e-01 3.015759456267815608e+02
3.874675120456131938e-01 2.844571457607247567e+02
3.981071705534973137e-01 2.683469522047356577e+02
4.090389886093310223e-01 2.529966747130445697e+02
4.202709887639691777e-01 2.384293805775287467e+02
4.318114138633850629e-01 2.247113968533008688e+02
4.436687330978611454e-01 2.117618696657988266e+02
4.558516482172869644e-01 1.994926082335497028e+02
4.683690999171267744e-01 1.878834951604679588e+02
4.812302743997415866e-01 1.769256161759423378e+02
4.944446101158824769e-01 1.665870871047020785e+02
5.080218046913023144e-01 1.568262438498504707e+02
5.219718220435651812e-01 1.476067500135513058e+02
5.363048996942866298e-01 1.389011957218461930e+02
5.510315562821569424e-01 1.306845860023212254e+02
5.661625992822727493e-01 1.229326225038559102e+02
5.817091329374357578e-01 1.156209266729729706e+02
5.976825664072412669e-01 1.087258664563173625e+02
6.140946221409364636e-01 1.022249835067910624e+02
6.309573444801930275e-01 9.609694395715145276e+01
6.482831084981072189e-01 9.032150450529503871e+01
6.660846290809153691e-01 8.487945292873848757e+01
6.843749702590877781e-01 7.975254791608578842e+01
7.031675547946470983e-01 7.492347501075542482e+01
7.224761740317566794e-01 7.037580443916003503e+01
7.423149980177935481e-01 6.609395139415003939e+01
7.626985859023444059e-01 6.206314065717230477e+01
7.836418966217518767e-01 5.826936479904925648e+01
8.051602998770538422e-01 5.469934632826806364e+01
8.272695874133697558e-01 5.134050329954937553e+01
8.499859846090145332e-01 4.818091629230409723e+01
8.733261623828428855e-01 4.520929671958936780e+01
8.973072494285637690e-01 4.241495641814024964e+01
9.219468447849992199e-01 3.978777659710032566e+01
9.472630307515245152e-01 3.731817850528896230e+01
9.732743861581504285e-01 3.499710092417910090e+01
1.000000000000000000e+00 3.281597493053429559e+01
