# k [h/Mpc]    P(k) [(Mpc/h)^3]
1.000000000000000021e-03 1.804895197735980037e+04
1.027459485446180097e-03 1.849925667352872551e+04
1.055672994233329033e-03 1.895947061850318278e+04
1.084661231454404472e-03 1.942973270066343684e+04
1.114445470753562583e-03 1.991017996878382837e+04
1.145047569938281197e-03 2.040094670886236054e+04
1.176489987020186466e-03 2.090215987263609350e+04
1.208795796696343801e-03 2.141394117278142949e+04
1.241988707283130794e-03 2.193640874635988439e+04
1.276093078115091931e-03 2.246967686976298864e+04
1.311133937421564335e-03 2.301385565803182908e+04
1.347137000694184497e-03 2.356905075577335083e+04
1.384128689558757194e-03 2.413536301980130520e+04
1.422136151165336168e-03 2.471288814039399222e+04
1.461187278110747181e-03 2.530171277153168194e+04
1.501310728908172810e-03 2.590191155399664058e+04
1.542535949018822338e-03 2.651355153332205737e+04
1.584893192461114082e-03 2.713669225162097428e+04
1.628413544013250025e-03 2.777138533918077519e+04
1.673128942025444267e-03 2.841767409911791401e+04
1.719072201858574652e-03 2.907559308557117402e+04
1.766277039966442823e-03 2.974516767595439160e+04
1.814778098639323453e-03 3.042641214014907382e+04
1.864610971426956289e-03 3.111931997361704271e+04
1.915812229259642330e-03 3.182386850445284290e+04
1.968419447286611293e-03 3.254002255041769604e+04
2.022471232451355985e-03 3.326773392431992397e+04
2.078007251824171529e-03 3.400694092294004076e+04
2.135068261712696168e-03 3.475756781579442031e+04
2.193696137571797024e-03 3.551952433488948736e+04
2.253933904734791056e-03 3.629270503292250214e+04
2.315825769988507938e-03 3.707697991829595412e+04
2.379417154015395913e-03 3.787218746500011912e+04
2.444754724726473216e-03 3.867814619234920974e+04
2.511886431509579437e-03 3.949465534906861285e+04
2.580861540418074272e-03 4.032149436901751324e+04
2.651730670325789813e-03 4.115842234095136519e+04
2.724545830074793281e-03 4.200517749442953209e+04
2.799360456643182338e-03 4.286147670404295786e+04
2.876229454360987748e-03 4.372701144248383207e+04
2.955209235202887856e-03 4.460142542680211773e+04
3.036357760187358319e-03 4.548432652331084682e+04
3.119734581912619095e-03 4.637529625994950766e+04
3.205400888260593294e-03 4.727388942805907573e+04
3.293419547300957713e-03 4.817963368861205527e+04
3.383855153428233075e-03 4.909202922258833132e+04
3.476774074765777087e-03 5.001054842887834093e+04
3.572244501871464119e-03 5.093463527080926724e+04
3.670336497780800258e-03 5.186367852438503905e+04
3.771122049424195655e-03 5.279699270407114091e+04
3.874675120456132216e-03 5.373385475066114304e+04
3.981071705534973415e-03 5.467350772217948543e+04
4.090389886093310536e-03 5.561516083157435787e+04
4.202709887639691569e-03 5.655798957877387875e+04
4.318114138633850560e-03 5.750113598185605952e+04
4.436687330978611628e-03 5.844370891196297453e+04
4.558516482172869644e-03 5.938477460983397759e+04
4.683690999171267327e-03 6.032329682685389707e+04
4.812302743997420168e-03 6.125817297955274989e+04
4.944446101158830355e-03 6.218826299471253151e+04
5.080218046913023006e-03 6.311239044780811673e+04
5.219718220435652298e-03 6.402934376934211468e+04
5.363048996942865534e-03 6.493787762523617130e+04
5.510315562821568869e-03 6.583671447548879951e+04
5.661625992822727667e-03 6.672454518479581748e+04
5.817091329374357578e-03 6.759995677238213830e+04
5.976825664072413224e-03 6.846138382959016599e+04
6.140946221409365226e-03 6.930721594360342715e+04
6.309573444801930275e-03 7.013581128394388361e+04
6.482831084981073057e-03 7.094549991008077632e+04
6.660846290809154316e-03 7.173458736411757127e+04
6.843749702590877504e-03 7.250135854778446082e+04
7.031675547946470567e-03 7.324408188124855224e+04
7.224761740317567349e-03 7.396098832744637912e+04
7.423149980177935758e-03 7.465012323764721805e+04
7.626985859023443712e-03 7.530944688835195848e+04
7.836418966217518697e-03 7.593691336673821206e+04
8.051602998770538214e-03 7.653047759613303060e+04
8.272695874133697766e-03 7.708810246571947937e+04
8.499859846090154769e-03 7.760776630612797453e+04
8.733261623828437667e-03 7.808747068759222748e+04
8.973072494285637066e-03 7.852524605164605600e+04
9.219468447849992962e-03 7.891899984090871294e+04
9.472630307515245152e-03 7.926642311984510161e+04
9.732743861581504355e-03 7.956523452112024825e+04
1.000000000000000021e-02 7.981321525549699436e+04
1.027459485446180140e-02 8.000822124399919994e+04
1.055672994233329033e-02 8.014819550160007202e+04
1.084661231454404559e-02 8.023118069880187977e+04
1.114445470753563060e-02 8.025533182099252008e+04
1.145047569938281717e-02 8.021890730585837446e+04
1.176489987020185903e-02 8.012015458156095701e+04
1.208795796696343280e-02 7.995740984430233948e+04
1.241988707283130100e-02 7.972917477593164949e+04
1.276093078115091844e-02 7.943413047791000281e+04
1.311133937421564422e-02 7.907115074152644956e+04
1.347137000694184628e-02 7.863931474684433488e+04
1.384128689558757237e-02 7.813791905661363853e+04
1.422136151165336211e-02 7.756649263803541544e+04
1.461187278110747875e-02 7.692505519167684542e+04
1.501310728908173547e-02 7.621426500280627806e+04
1.542535949018821427e-02 7.543504342452109267e+04
1.584893192461113431e-02 7.458853826740769728e+04
1.628413544013249115e-02 7.367612283449331881e+04
1.673128942025444224e-02 7.269939365345449187e+04
1.719072201858574608e-02 7.166016688556341978e+04
1.766277039966442780e-02 7.056047340139526932e+04
1.814778098639323323e-02 6.940285789823794039e+04
1.864610971426956115e-02 6.819211783332283085e+04
1.915812229259642244e-02 6.693392499604423938e+04
1.968419447286612334e-02 6.563387587214674568e+04
2.022471232451356765e-02 6.429745878337855538e+04
2.078007251824172744e-02 6.293002714051523071e+04
2.135068261712695301e-02 6.153677563739630568e+04
2.193696137571795809e-02 6.012271938743047940e+04
2.253933904734791230e-02 5.869271168938490882e+04
2.315825769988507851e-02 5.725337938960910105e+04
2.379417154015396260e-02 5.581387110927341564e+04
2.444754724726472955e-02 5.438283383485654485e+04
2.511886431509579437e-02 5.296814898518521659e+04
2.580861540418074099e-02 5.157694722647435265e+04
2.651730670325791461e-02 5.021563364152515715e+04
2.724545830074791633e-02 4.888992156705958769e+04
2.799360456643180950e-02 4.760487534618662175e+04
2.876229454360986273e-02 4.636505818997300230e+04
2.955209235202886295e-02 4.517462324885167618e+04
3.036357760187358493e-02 4.403721200170752127e+04
3.119734581912619181e-02 4.295599988776544342e+04
3.205400888260593467e-02 4.193375779860198963e+04
3.293419547300957539e-02 4.097255012406871538e+04
3.383855153428233509e-02 4.007067560081419651e+04
3.476774074765778821e-02 3.922457623158025672e+04
3.572244501871466027e-02 3.843093783114256075e+04
3.670336497780802426e-02 3.768535371611269511e+04
3.771122049424197736e-02 3.697997350538153842e+04
3.874675120456130134e-02 3.630680529506207677e+04
3.981071705534973415e-02 3.565649747613805084e+04
4.090389886093310362e-02 3.501781225852815260e+04
4.202709887639691222e-02 3.437940777839085058e+04
4.318114138633850907e-02 3.372879055804848031e+04
4.436687330978611454e-02 3.305383368438925390e+04
4.558516482172869644e-02 3.234272649201657623e+04
4.683690999171270103e-02 3.158506665142831480e+04
4.812302743997418086e-02 3.077239112999347708e+04
4.944446101158827406e-02 2.989900829824550237e+04
5.080218046913020230e-02 2.896233582304027004e+04
5.219718220435649175e-02 2.796393391807364969e+04
5.363048996942865881e-02 2.690949644636735320e+04
5.510315562821568869e-02 2.580882807894136567e+04
5.661625992822727493e-02 2.467592891025968856e+04
5.817091329374357578e-02 2.352816418964613331e+04
5.976825664072413224e-02 2.238525428449350147e+04
6.140946221409365052e-02 2.126822360856539308e+04
6.309573444801933051e-02 2.019797747207554130e+04
6.482831084981076353e-02 1.919365344983444083e+04
6.660846290809158132e-02 1.827131156032188301e+04
6.843749702590873341e-02 1.744275310824190092e+04
7.031675547946467097e-02 1.671430435117032539e+04
7.224761740317567349e-02 1.608617830290889106e+04
7.423149980177935758e-02 1.555218514958289052e+04
7.626985859023444059e-02 1.509976313100381230e+04
7.836418966217519044e-02 1.471038769877099367e+04
8.051602998770537867e-02 1.436056698225265245e+04
8.272695874133702276e-02 1.402378947305901966e+04
8.499859846090150606e-02 1.367305971153190876e+04
8.733261623828432463e-02 1.328414814062726509e+04
8.973072494285633249e-02 1.283921501598506984e+04
9.219468447849987758e-02 1.232996721124410760e+04
9.472630307515245152e-02 1.175961504759308809e+04
9.732743861581504008e-02 1.114282108165547288e+04
1.000000000000000056e-01 1.050355122348086115e+04
1.027459485446180071e-01 9.871189498444873607e+03
1.055672994233329137e-01 9.275650685717550004e+03
1.084661231454404490e-01 8.742160345499478353e+03
1.114445470753562539e-01 8.286799737578861823e+03
1.145047569938281162e-01 7.913942781876634399e+03
1.176489987020185313e-01 7.615363673316512177e+03
1.208795796696343905e-01 7.371661178333534735e+03
1.241988707283130794e-01 7.156797994576470046e+03
1.276093078115091983e-01 6.941053762805436236e+03
1.311133937421564422e-01 6.697220178610651601e+03
1.347137000694184628e-01 6.409596644089286201e+03
1.384128689558757064e-01 6.079694326449023720e+03
1.422136151165336038e-01 5.724454267623196756e+03
1.461187278110747112e-01 5.369721674511051788e+03
1.501310728908172853e-01 5.041091378655827612e+03
1.542535949018820629e-01 4.756830722482382953e+03
1.584893192461114264e-01 4.523748319164880741e+03
1.628413544013249947e-01 4.335503731740924195e+03
1.673128942025444155e-01 4.173678942788375025e+03
1.719072201858574678e-01 4.014990301890323735e+03
1.766277039966442919e-01 3.841197025847806799e+03
1.814778098639323323e-01 3.645735892779414826e+03
1.864610971426956254e-01 3.435525435911776640e+03
1.915812229259642452e-01 3.227381611939300456e+03
1.968419447286611224e-01 3.039448275726901102e+03
2.022471232451355794e-01 2.880196156672738198e+03
2.078007251824171564e-01 2.745883470564925574e+03
2.135068261712696203e-01 2.624468551897591169e+03
2.193696137571796989e-01 2.502458231619941216e+03
2.253933904734791160e-01 2.372296643657997720e+03
2.315825769988507921e-01 2.237459359284139737e+03
2.379417154015396052e-01 2.107307025432408409e+03
2.444754724726473094e-01 1.990092979494198289e+03
2.511886431509579576e-01 1.887645304540729512e+03
2.580861540418074029e-01 1.794043101210766736e+03
2.651730670325789796e-01 1.702144052169116094e+03
2.724545830074790453e-01 1.609223456767686457e+03
2.799360456643182338e-01 1.517749413224038790e+03
2.876229454360987869e-01 1.432282727927821497e+03
2.955209235202888030e-01 1.354472253016784180e+03
3.036357760187358701e-01 1.282456423304216742e+03
3.119734581912619320e-01 1.213290305937285211e+03
3.205400888260593328e-01 1.145382270333868291e+03
3.293419547300957539e-01 1.080323982067657198e+03
3.383855153428233509e-01 1.019692342222961088e+03
3.476774074765777156e-01 9.635012989079245926e+02
3.572244501871464362e-01 9.098094947477638925e+02
3.670336497780800622e-01 8.582525473984567270e+02
3.771122049424199818e-01 8.092983398658221859e+02
3.874675120456131938e-01 7.633583276030332172e+02
3.981071705534973137e-01 7.201231756681376055e+02
4.090389886093310223e-01 6.789304960436786587e+02
4.202709887639691777e-01 6.398399192776111022e+02
4.318114138633850629e-01 6.030262638102797155e+02
4.436687330978611454e-01 5.682740068374205293e+02
4.558516482172869644e-01 5.353482074157127499e+02
4.683690999171267744e-01 5.041945654657895943e+02
4.812302743997415866e-01 4.747885044068764842e+02
4.944446101158824769e-01 4.470443662346746123e+02
5.080218046913023144e-01 4.208505117004440876e+02
5.219718220435651812e-01 3.961095247874591223e+02
5.363048996942866298e-01 3.727477889807694851e+02
5.510315562821569424e-01 3.506981529117896912e+02
5.661625992822727493e-01 3.298953588964989194e+02
5.817091329374357578e-01 3.102739951608832030e+02
5.976825664072412669e-01 2.917706711275317275e+02
6.140946221409364636e-01 2.743251405999581038e+02
6.309573444801930275e-01 2.578801695554814728e+02
6.482831084981072189e-01 2.423814379525165918e+02
6.660846290809153691e-01 2.277773859507089185e+02
6.843749702590877781e-01 2.140190594339948689e+02
7.031675547946470983e-01 2.010599918727163526e+02
7.224761740317566794e-01 1.888560911199000429e+02
7.423149980177935481e-01 1.773655327134175366e+02
7.626985859023444059e-01 1.665486645486120096e+02
7.836418966217518767e-01 1.563678951042107883e+02
8.051602998770538422e-01 1.467875920196129016e+02
8.272695874133697558e-01 1.377739897601124426e+02
8.499859846090145332e-01 1.292951009626654297e+02
8.733261623828428855e-01 1.213206313563360368e+02
8.973072494285637690e-01 1.138218981272744230e+02
9.219468447849992199e-01 1.067717470074689174e+02
9.472630307515245152e-01 1.001444738622041655e+02
9.732743861581504285e-01 9.391576328486486602e+01
1.000000000000000000e+00 8.806262076837739983e+01
