# k [h/Mpc]    P(k) [(Mpc/h)^3]
1.000000000000000021e-03 1.072545369197078435e+04
1.027459485446180097e-03 1.099391181466921444e+04
1.055672994233329033e-03 1.126830378802644009e+04
1.084661231454404472e-03 1.154871076271407946e+04
1.114445470753562583e-03 1.183521253536670883e+04
1.145047569938281197e-03 1.212788712813472557e+04
1.176489987020186466e-03 1.242680894724987775e+04
1.208795796696343801e-03 1.273204953161227058e+04
1.241988707283130794e-03 1.304367813186136118e+04
1.276093078115091931e-03 1.336176152986532179e+04
1.311133937421564335e-03 1.368636385016272470e+04
1.347137000694184497e-03 1.401754636619924895e+04
1.384128689558757194e-03 1.435536730144883040e+04
1.422136151165336168e-03 1.469988160244018945e+04
1.461187278110747181e-03 1.505113919704351247e+04
1.501310728908172810e-03 1.540918363783259338e+04
1.542535949018822338e-03 1.577405394965965206e+04
1.584893192461114082e-03 1.614578460116369388e+04
1.628413544013250025e-03 1.652440525828505633e+04
1.673128942025444267e-03 1.690994053367186643e+04
1.719072201858574652e-03 1.730240973227388531e+04
1.766277039966442823e-03 1.770182659344544300e+04
1.814778098639323453e-03 1.810819823862428166e+04
1.864610971426956289e-03 1.852152003106101984e+04
1.915812229259642330e-03 1.894177797614439623e+04
1.968419447286611293e-03 1.936895062050410343e+04
2.022471232451355985e-03 1.980300875782568983e+04
2.078007251824171529e-03 2.024391512598797271e+04
2.135068261712696168e-03 2.069162410420312881e+04
2.193696137571797024e-03 2.114608141084646195e+04
2.253933904734791056e-03 2.160722372252300920e+04
2.315825769988507938e-03 2.207497306436628423e+04
2.379417154015395913e-03 2.254923262286418685e+04
2.444754724726473216e-03 2.302989368994819597e+04
2.511886431509579437e-03 2.351683607704907627e+04
2.580861540418074272e-03 2.400992779296224035e+04
2.651730670325789813e-03 2.450902473017642842e+04
2.724545830074793281e-03 2.501397036091665359e+04
2.799360456643182338e-03 2.552459544419190934e+04
2.876229454360987748e-03 2.604071569778881531e+04
2.955209235202887856e-03 2.656211897641729593e+04
3.036357760187358319e-03 2.708857208751962753e+04
3.119734581912619095e-03 2.761982623741810312e+04
3.205400888260593294e-03 2.815561679753716817e+04
3.293419547300957713e-03 2.869566307396539560e+04
3.383855153428233075e-03 2.923966810315144903e+04
3.476774074765777087e-03 2.978731847571870094e+04
3.572244501871464119e-03 3.033828394613474302e+04
3.670336497780800258e-03 3.089220119566234280e+04
3.771122049424195655e-03 3.144866225426707024e+04
3.874675120456132216e-03 3.200723677808828143e+04
3.981071705534973415e-03 3.256747429275320610e+04
4.090389886093310536e-03 3.312890421748955123e+04
4.202709887639691569e-03 3.369103594524977234e+04
4.318114138633850560e-03 3.425335898165619437e+04
4.436687330978611628e-03 3.481534314549875853e+04
4.558516482172869644e-03 3.537643288643415144e+04
4.683690999171267327e-03 3.593601142131005327e+04
4.812302743997420168e-03 3.649342238984718279e+04
4.944446101158830355e-03 3.704798713217201293e+04
5.080218046913023006e-03 3.759900536703439138e+04
5.219718220435652298e-03 3.814575590985725285e+04
5.363048996942865534e-03 3.868749749419089494e+04
5.510315562821568869e-03 3.922346969906060258e+04
5.661625992822727667e-03 3.975289330649531621e+04
5.817091329374357578e-03 4.027492694714313984e+04
5.976825664072413224e-03 4.078863794053415040e+04
6.140946221409365226e-03 4.129306672573061951e+04
6.309573444801930275e-03 4.178723499834671384e+04
6.482831084981073057e-03 4.227014768001369521e+04
6.660846290809154316e-03 4.274079505769295793e+04
6.843749702590877504e-03 4.319815509238249069e+04
7.031675547946470567e-03 4.364119589574145357e+04
7.224761740317567349e-03 4.406886330704447755e+04
7.423149980177935758e-03 4.447999307344697445e+04
7.626985859023443712e-03 4.487337046026658936e+04
7.836418966217518697e-03 4.524777702984926873e+04
8.051602998770538214e-03 4.560199482133605488e+04
8.272695874133697766e-03 4.593481059295988962e+04
8.499859846090154769e-03 4.624502027009228186e+04
8.733261623828437667e-03 4.653143358518023160e+04
8.973072494285637066e-03 4.679287741564568569e+04
9.219468447849992962e-03 4.702810457576542831e+04
9.472630307515245152e-03 4.723573771110154485e+04
9.732743861581504355e-03 4.741441568030594499e+04
1.000000000000000021e-02 4.756281452256212651e+04
1.027459485446180140e-02 4.767965469208290597e+04
1.055672994233329033e-02 4.776370844355510053e+04
1.084661231454404559e-02 4.781380732465881010e+04
1.114445470753563060e-02 4.782884972792043118e+04
1.145047569938281717e-02 4.780779569543901016e+04
1.176489987020185903e-02 4.774959917220305942e+04
1.208795796696343280e-02 4.765326715874061483e+04
1.241988707283130100e-02 4.751790520813673356e+04
1.276093078115091844e-02 4.734272573467091570e+04
1.311133937421564422e-02 4.712705592845576030e+04
1.347137000694184628e-02 4.687034533037415531e+04
1.384128689558757237e-02 4.657217298758191464e+04
1.422136151165336211e-02 4.623225641104886017e+04
1.461187278110747875e-02 4.585060533815470262e+04
1.501310728908173547e-02 4.542760975602325198e+04
1.542535949018821427e-02 4.496381643874062866e+04
1.584893192461113431e-02 4.445990717416545522e+04
1.628413544013249115e-02 4.391669820338732097e+04
1.673128942025444224e-02 4.333513888358471741e+04
1.719072201858574608e-02 4.271630956191904261e+04
1.766277039966442780e-02 4.206141865438628884e+04
1.814778098639323323e-02 4.137198098845394998e+04
1.864610971426956115e-02 4.065085456651850109e+04
1.915812229259642244e-02 3.990141885325084149e+04
1.968419447286612334e-02 3.912700863793841563e+04
2.022471232451356765e-02 3.833089444288683444e+04
2.078007251824172744e-02 3.751626657447310572e+04
2.135068261712695301e-02 3.668622092576899740e+04
2.193696137571795809e-02 3.584374653180268069e+04
2.253933904734791230e-02 3.499173615221686487e+04
2.315825769988507851e-02 3.413414003951896302e+04
2.379417154015396260e-02 3.327641208384234778e+04
2.444754724726472955e-02 3.242370744929624925e+04
2.511886431509579437e-02 3.158072519733378795e+04
2.580861540418074099e-02 3.075171708264160407e+04
2.651730670325791461e-02 2.994050252275780076e+04
2.724545830074791633e-02 2.915048873692620691e+04
2.799360456643180950e-02 2.838469620330403995e+04
2.876229454360986273e-02 2.764584685517999606e+04
2.955209235202886295e-02 2.693641838288005965e+04
3.036357760187358493e-02 2.625858352104931328e+04
3.119734581912619181e-02 2.561423722363082925e+04
3.205400888260593467e-02 2.500503330793613713e+04
3.293419547300957539e-02 2.443220431030738109e+04
3.383855153428233509e-02 2.389473666675921049e+04
3.476774074765778821e-02 2.339050922695980262e+04
3.572244501871466027e-02 2.291754617475561099e+04
3.670336497780802426e-02 2.247322103036585395e+04
3.771122049424197736e-02 2.205285602614386153e+04
3.874675120456130134e-02 2.165168893770259820e+04
3.981071705534973415e-02 2.126414403222641340e+04
4.090389886093310362e-02 2.088351752339367158e+04
4.202709887639691222e-02 2.050304353697110491e+04
4.318114138633850907e-02 2.011527017533166509e+04
4.436687330978611454e-02 1.971296500315314915e+04
4.558516482172869644e-02 1.928908646513976782e+04
4.683690999171270103e-02 1.883743086629127720e+04
4.812302743997418086e-02 1.835294763702244745e+04
4.944446101158827406e-02 1.783224205750166948e+04
5.080218046913020230e-02 1.727377566916635624e+04
5.219718220435649175e-02 1.667847887343596449e+04
5.363048996942865881e-02 1.604974473192551523e+04
5.510315562821568869e-02 1.539341745794970666e+04
5.661625992822727493e-02 1.471784890225551135e+04
5.817091329374357578e-02 1.403340384400725452e+04
5.976825664072413224e-02 1.335184271605326467e+04
6.140946221409365052e-02 1.268568781779259916e+04
6.309573444801933051e-02 1.204742582831143955e+04
6.482831084981076353e-02 1.144847690910814708e+04
6.660846290809158132e-02 1.089841313908390839e+04
6.843749702590873341e-02 1.040427914585241888e+04
7.031675547946467097e-02 9.969850950680673122e+03
7.224761740317567349e-02 9.595252724795940594e+03
7.423149980177935758e-02 9.276797330799994597e+03
7.626985859023444059e-02 9.006998858221679257e+03
7.836418966217519044e-02 8.774796179680322894e+03
8.051602998770537867e-02 8.566185729252360034e+03
8.272695874133702276e-02 8.365346521430803477e+03
8.499859846090150606e-02 8.156175792498857845e+03
8.733261623828432463e-02 7.924232384050257679e+03
8.973072494285633249e-02 7.658866045545974885e+03
9.219468447849987758e-02 7.355129474807705265e+03
9.472630307515245152e-02 7.014938600876055716e+03
9.732743861581504008e-02 6.647038774740413828e+03
1.000000000000000056e-01 6.265725706938719668e+03
1.027459485446180071e-01 5.888529020886537182e+03
1.055672994233329137e-01 5.533293787235634227e+03
1.084661231454404490e-01 5.215069140862910899e+03
1.114445470753562539e-01 4.943448939100970165e+03
1.145047569938281162e-01 4.721041871756936416e+03
1.176489987020185313e-01 4.542942532111773289e+03
1.208795796696343905e-01 4.397580942077214786e+03
1.241988707283130794e-01 4.269419666670177321e+03
1.276093078115091983e-01 4.140731278819287581e+03
1.311133937421564422e-01 3.995284485710366880e+03
1.347137000694184628e-01 3.823712363839330465e+03
1.384128689558757064e-01 3.626918194001985739e+03
1.422136151165336038e-01 3.415006574179210020e+03
1.461187278110747112e-01 3.203396635368877014e+03
1.501310728908172853e-01 3.007353581402238888e+03
1.542535949018820629e-01 2.837779701894017762e+03
1.584893192461114264e-01 2.698738838795572974e+03
1.628413544013249947e-01 2.586441747531503097e+03
1.673128942025444155e-01 2.489909422979872943e+03
1.719072201858574678e-01 2.395246495903390496e+03
1.766277039966442919e-01 2.291569916301248213e+03
1.814778098639323323e-01 2.174966953532604293e+03
1.864610971426956254e-01 2.049564702755311828e+03
1.915812229259642452e-01 1.925393580684819426e+03
1.968419447286611224e-01 1.813279335654593069e+03
2.022471232451355794e-01 1.718275024427366588e+03
2.078007251824171564e-01 1.638148756347352673e+03
2.135068261712696203e-01 1.565717279909128365e+03
2.193696137571796989e-01 1.492930137333695939e+03
2.253933904734791160e-01 1.415279476116329079e+03
2.315825769988507921e-01 1.334839284668508071e+03
2.379417154015396052e-01 1.257193838924134980e+03
2.444754724726473094e-01 1.187266964490361715e+03
2.511886431509579576e-01 1.126149571430680680e+03
2.580861540418074029e-01 1.070308872275958265e+03
2.651730670325789796e-01 1.015483390421667082e+03
2.724545830074790453e-01 9.600483447286015917e+02
2.799360456643182338e-01 9.054770880717890122e+02
2.876229454360987869e-01 8.544904986666699642e+02
2.955209235202888030e-01 8.080713837406354969e+02
3.036357760187358701e-01 7.651084031280900035e+02
3.119734581912619320e-01 7.238441561400244382e+02
3.205400888260593328e-01 6.833295972773936455e+02
3.293419547300957539e-01 6.445168675245910208e+02
3.383855153428233509e-01 6.083455530204421393e+02
3.476774074765777156e-01 5.748224821066031609e+02
3.572244501871464362e-01 5.427912309931210757e+02
3.670336497780800622e-01 5.120329738773040162e+02
3.771122049424199818e-01 4.828258822158005614e+02
3.874675120456131938e-01 4.554183627538224641e+02
3.981071705534973137e-01 4.296254182652379541e+02
4.090389886093310223e-01 4.050494193551483590e+02
4.202709887639691777e-01 3.817271332835057365e+02
4.318114138633850629e-01 3.597644734018148824e+02
4.436687330978611454e-01 3.390320733940718014e+02
4.558516482172869644e-01 3.193888495176341280e+02
4.683690999171267744e-01 3.008025645348936337e+02
4.812302743997415866e-01 2.832588966642772448e+02
4.944446101158824769e-01 2.667068006406726113e+02
5.080218046913023144e-01 2.510795967002229077e+02
5.219718220435651812e-01 2.363191226221883028e+02
5.363048996942866298e-01 2.223814817635640395e+02
5.510315562821569424e-01 2.092266417317320872e+02
5.661625992822727493e-01 1.968156905089417990e+02
5.817091329374357578e-01 1.851096010666297786e+02
5.976825664072412669e-01 1.740705452774630260e+02
6.140946221409364636e-01 1.636625727024726586e+02
6.309573444801930275e-01 1.538515316964751207e+02
6.482831084981072189e-01 1.446050125587380251e+02
6.660846290809153691e-01 1.358922542915217377e+02
6.843749702590877781e-01 1.276840506655182139e+02
7.031675547946470983e-01 1.199526796811671545e+02
7.224761740317566794e-01 1.126718360080162284e+02
7.423149980177935481e-01 1.058165674887746235e+02
7.626985859023444059e-01 9.936321900818217046e+01
7.836418966217518767e-01 9.328936490731133802e+01
8.051602998770538422e-01 8.757374808882919126e+01
8.272695874133697558e-01 8.219622496625936492e+01
8.499859846090145332e-01 7.713771260565576426e+01
8.733261623828428855e-01 7.238013799635524492e+01
8.973072494285637690e-01 6.790638937117348917e+01
9.219468447849992199e-01 6.370026640551434838e+01
9.472630307515245152e-01 5.974643319171204325e+01
9.732743861581504285e-01 5.603038241878127934e+01
1.000000000000000000e+00 5.253839498932405405e+01
