# k [h/Mpc]    P(k) [(Mpc/h)^3]
1.000000000000000021e-03 6.606263141772030394e+03
1.027459485446180097e-03 6.770148291196511309e+03
1.055672994233329033e-03 6.937646862077131118e+03
1.084661231454404472e-03 7.108811614374876626e+03
1.114445470753562583e-03 7.283694811632827623e+03
1.145047569938281197e-03 7.462347724417917561e+03
1.176489987020186466e-03 7.644817946140803542e+03
1.208795796696343801e-03 7.831150722417382894e+03
1.241988707283130794e-03 8.021390013338181234e+03
1.276093078115091931e-03 8.215578389876147412e+03
1.311133937421564335e-03 8.413756922875776581e+03
1.347137000694184497e-03 8.615965068846569920e+03
1.384128689558757194e-03 8.822240552604875120e+03
1.422136151165336168e-03 9.032619224278083493e+03
1.461187278110747181e-03 9.247133453458580334e+03
1.501310728908172810e-03 9.465810906485670785e+03
1.542535949018822338e-03 9.688676410350364677e+03
1.584893192461114082e-03 9.915752006717741097e+03
1.628413544013250025e-03 1.014705679800983853e+04
1.673128942025444267e-03 1.038260679078272005e+04
1.719072201858574652e-03 1.062241473657717324e+04
1.766277039966442823e-03 1.086648997043934287e+04
1.814778098639323453e-03 1.111483773285204370e+04
1.864610971426956289e-03 1.136745584837287424e+04
1.915812229259642330e-03 1.162433629221902265e+04
1.968419447286611293e-03 1.188546642079677440e+04
2.022471232451355985e-03 1.215082878605980841e+04
2.078007251824171529e-03 1.242040094420640889e+04
2.135068261712696168e-03 1.269415526421672985e+04
2.193696137571797024e-03 1.297205873666285515e+04
2.253933904734791056e-03 1.325407273400479971e+04
2.315825769988507938e-03 1.354014958981719792e+04
2.379417154015395913e-03 1.383023006189486841e+04
2.444754724726473216e-03 1.412424753878908268e+04
2.511886431509579437e-03 1.442212828058629566e+04
2.580861540418074272e-03 1.472379121508780554e+04
2.651730670325789813e-03 1.502914773914786383e+04
2.724545830074793281e-03 1.533810152596241096e+04
2.799360456643182338e-03 1.565054833912719914e+04
2.876229454360987748e-03 1.596637467824232044e+04
2.955209235202887856e-03 1.628545042995698350e+04
3.036357760187358319e-03 1.660763276504735040e+04
3.119734581912619095e-03 1.693276922814707359e+04
3.205400888260593294e-03 1.726069758904234914e+04
3.293419547300957713e-03 1.759124569715773760e+04
3.383855153428233075e-03 1.792423135212862690e+04
3.476774074765777087e-03 1.825946219170188488e+04
3.572244501871464119e-03 1.859673545353402005e+04
3.670336497780800258e-03 1.893582844057498733e+04
3.771122049424195655e-03 1.927649177319810769e+04
3.874675120456132216e-03 1.961846242275029726e+04
3.981071705534973415e-03 1.996146501443713714e+04
4.090389886093310536e-03 2.030521183928180108e+04
4.202709887639691569e-03 2.064940290033315250e+04
4.318114138633850560e-03 2.099372599485299361e+04
4.436687330978611628e-03 2.133785683416807296e+04
4.558516482172869644e-03 2.168145551933794923e+04
4.683690999171267327e-03 2.202414442351866819e+04
4.812302743997420168e-03 2.236552158774823329e+04
4.944446101158830355e-03 2.270517134045265266e+04
5.080218046913023006e-03 2.304266470938312705e+04
5.219718220435652298e-03 2.337755985861248701e+04
5.363048996942865534e-03 2.370940258903755966e+04
5.510315562821568869e-03 2.403772690393673111e+04
5.661625992822727667e-03 2.436205522233046213e+04
5.817091329374357578e-03 2.468187185469834003e+04
5.976825664072413224e-03 2.499660530855132674e+04
6.140946221409365226e-03 2.530566760155967131e+04
6.309573444801930275e-03 2.560845920948420462e+04
6.482831084981073057e-03 2.590437027050782126e+04
6.660846290809154316e-03 2.619278189387748353e+04
6.843749702590877504e-03 2.647306757260512313e+04
7.031675547946470567e-03 2.674459469935262314e+04
7.224761740317567349e-03 2.700671698042687785e+04
7.423149980177935758e-03 2.725872103854624947e+04
7.626985859023443712e-03 2.749986279442091836e+04
7.836418966217518697e-03 2.772939585663619073e+04
8.051602998770538214e-03 2.794657407628223882e+04
8.272695874133697766e-03 2.815065414261286423e+04
8.499859846090154769e-03 2.834089830489020460e+04
8.733261623828437667e-03 2.851657721195663180e+04
8.973072494285637066e-03 2.867697194047544690e+04
9.219468447849992962e-03 2.882131776951826760e+04
9.472630307515245152e-03 2.894876989722284270e+04
9.732743861581504355e-03 2.905849338713342513e+04
1.000000000000000021e-02 2.914967600027809021e+04
1.027459485446180140e-02 2.922153262942619040e+04
1.055672994233329033e-02 2.927330982659538495e+04
1.084661231454404559e-02 2.930429039694737367e+04
1.114445470753563060e-02 2.931379802984103662e+04
1.145047569938281717e-02 2.930119402319299115e+04
1.176489987020185903e-02 2.926583541792295000e+04
1.208795796696343280e-02 2.920711159498943016e+04
1.241988707283130100e-02 2.912447227896381082e+04
1.276093078115091844e-02 2.901743264123854897e+04
1.311133937421564422e-02 2.888557816383729732e+04
1.347137000694184628e-02 2.872856929595620022e+04
1.384128689558757237e-02 2.854614585426227131e+04
1.422136151165336211e-02 2.833813255396806926e+04
1.461187278110747875e-02 2.810453405088878571e+04
1.501310728908173547e-02 2.784558887519150812e+04
1.542535949018821427e-02 2.756163166320451273e+04
1.584893192461113431e-02 2.725307979957608768e+04
1.628413544013249115e-02 2.692043307508896760e+04
1.673128942025444224e-02 2.656427286865733549e+04
1.719072201858574608e-02 2.618526084592910411e+04
1.766277039966442780e-02 2.578413717076701141e+04
1.814778098639323323e-02 2.536183017473277141e+04
1.864610971426956115e-02 2.492009091929099304e+04
1.915812229259642244e-02 2.446098884466377422e+04
1.968419447286612334e-02 2.398656616797277093e+04
2.022471232451356765e-02 2.349882590743919354e+04
2.078007251824172744e-02 2.299972211088110271e+04
2.135068261712695301e-02 2.249115115513278943e+04
2.193696137571795809e-02 2.197494411723891972e+04
2.253933904734791230e-02 2.145287341055925936e+04
2.315825769988507851e-02 2.092736205051900470e+04
2.379417154015396260e-02 2.040175450695749532e+04
2.444754724726472955e-02 1.987921177583773533e+04
2.511886431509579437e-02 1.936261534875361031e+04
2.580861540418074099e-02 1.885457258636273764e+04
2.651730670325791461e-02 1.835742587833808284e+04
2.724545830074791633e-02 1.787326497417980863e+04
2.799360456643180950e-02 1.740394258700911087e+04
2.876229454360986273e-02 1.695112875915466066e+04
2.955209235202886295e-02 1.651634411270601049e+04
3.036357760187358493e-02 1.610092228393912956e+04
3.119734581912619181e-02 1.570602657561296837e+04
3.205400888260593467e-02 1.533267242663457728e+04
3.293419547300957539e-02 1.498161619636295654e+04
3.383855153428233509e-02 1.465223250244944757e+04
3.476774074765778821e-02 1.434321586443098931e+04
3.572244501871466027e-02 1.405335033241207384e+04
3.670336497780802426e-02 1.378102588463075153e+04
3.771122049424197736e-02 1.352338923012333544e+04
3.874675120456130134e-02 1.327753648227039957e+04
3.981071705534973415e-02 1.304004484335593224e+04
4.090389886093310362e-02 1.280677599538905815e+04
4.202709887639691222e-02 1.257356423138382706e+04
4.318114138633850907e-02 1.233585417001662063e+04
4.436687330978611454e-02 1.208922803661480430e+04
4.558516482172869644e-02 1.182938040477868162e+04
4.683690999171270103e-02 1.155250371275481120e+04
4.812302743997418086e-02 1.125547599888359582e+04
4.944446101158827406e-02 1.093622262217654134e+04
5.080218046913020230e-02 1.059381867625759514e+04
5.219718220435649175e-02 1.022881052138029190e+04
5.363048996942865881e-02 9.843279974439685247e+03
5.510315562821568869e-02 9.440832832970347226e+03
5.661625992822727493e-02 9.026573622009753308e+03
5.817091329374357578e-02 8.606856762779618293e+03
5.976825664072413224e-02 8.188904783421199681e+03
6.140946221409365052e-02 7.780396270044823723e+03
6.309573444801933051e-02 7.388975412162057182e+03
6.482831084981076353e-02 7.021672744403947945e+03
6.660846290809158132e-02 6.684364671135156641e+03
6.843749702590873341e-02 6.381309820540684996e+03
7.031675547946467097e-02 6.114890758551619911e+03
7.224761740317567349e-02 5.885168609675120024e+03
7.423149980177935758e-02 5.689870275575611231e+03
7.626985859023444059e-02 5.524438246113091736e+03
7.836418966217519044e-02 5.382044125952812465e+03
8.051602998770537867e-02 5.254112541515912199e+03
8.272695874133702276e-02 5.130947326463991885e+03
8.499859846090150606e-02 5.002669894972424117e+03
8.733261623828432463e-02 4.860425268738862542e+03
8.973072494285633249e-02 4.697677057763954508e+03
9.219468447849987758e-02 4.511390458773052160e+03
9.472630307515245152e-02 4.302747040430406742e+03
9.732743861581504008e-02 4.077106115421437607e+03
1.000000000000000056e-01 3.843231072435429269e+03
1.027459485446180071e-01 3.611879997027733680e+03
1.055672994233329137e-01 3.393996615400129940e+03
1.084661231454404490e-01 3.198816032685290338e+03
1.114445470753562539e-01 3.032219963203545376e+03
1.145047569938281162e-01 2.895806264246850333e+03
1.176489987020185313e-01 2.786569021274182887e+03
1.208795796696343905e-01 2.697412922846217498e+03
1.241988707283130794e-01 2.618807768866054630e+03
1.276093078115091983e-01 2.539879979108913176e+03
1.311133937421564422e-01 2.450668892362513361e+03
1.347137000694184628e-01 2.345431485375494049e+03
1.384128689558757064e-01 2.224725701173229027e+03
1.422136151165336038e-01 2.094739147700429839e+03
1.461187278110747112e-01 1.964948199960717602e+03
1.501310728908172853e-01 1.844701127674207328e+03
1.542535949018820629e-01 1.740684814556141191e+03
1.584893192461114264e-01 1.655402917037183215e+03
1.628413544013249947e-01 1.586522902875758518e+03
1.673128942025444155e-01 1.527310800158921211e+03
1.719072201858574678e-01 1.469246137856762061e+03
1.766277039966442919e-01 1.405654361686405309e+03
1.814778098639323323e-01 1.334131781659659737e+03
1.864610971426956254e-01 1.257209095821578103e+03
1.915812229259642452e-01 1.181044751468146387e+03
1.968419447286611224e-01 1.112274258634014814e+03
2.022471232451355794e-01 1.053999449476515565e+03
2.078007251824171564e-01 1.004852067119851313e+03
2.135068261712696203e-01 9.604230564856669616e+02
2.193696137571796989e-01 9.157740580686123621e+02
2.253933904734791160e-01 8.681439895924869461e+02
2.315825769988507921e-01 8.188021184289274288e+02
2.379417154015396052e-01 7.711732212363649523e+02
2.444754724726473094e-01 7.282801223435762950e+02
2.511886431509579576e-01 6.907925044063915720e+02
2.580861540418074029e-01 6.565399609087198769e+02
2.651730670325789796e-01 6.229090946349975866e+02
2.724545830074790453e-01 5.889042582427728121e+02
2.799360456643182338e-01 5.554299688104589450e+02
2.876229454360987869e-01 5.241553510334473458e+02
2.955209235202888030e-01 4.956814009662489298e+02
3.036357760187358701e-01 4.693274229159476931e+02
3.119734581912619320e-01 4.440158455480092812e+02
3.205400888260593328e-01 4.191634896269879391e+02
3.293419547300957539e-01 3.953553616520588889e+02
3.383855153428233509e-01 3.731677369770704900e+02
3.476774074765777156e-01 3.526042529794368079e+02
3.572244501871464362e-01 3.329558466134910759e+02
3.670336497780800622e-01 3.140883047403681871e+02
3.771122049424199818e-01 2.961721329591691187e+02
3.874675120456131938e-01 2.793599843298088672e+02
3.981071705534973137e-01 2.635383549174751465e+02
4.090389886093310223e-01 2.484632303952114967e+02
4.202709887639691777e-01 2.341571263980744959e+02
4.318114138633850629e-01 2.206849380549109867e+02
4.436687330978611454e-01 2.079673670090204780e+02
4.558516482172869644e-01 1.959179592128499792e+02
4.683690999171267744e-01 1.845169187382339828e+02
4.812302743997415866e-01 1.737554071444183137e+02
4.944446101158824769e-01 1.636021022435233192e+02
5.080218046913023144e-01 1.540161222239612187e+02
5.219718220435651812e-01 1.449618070765766333e+02
5.363048996942866298e-01 1.364122373603128153e+02
5.510315562821569424e-01 1.283428594661907596e+02
5.661625992822727493e-01 1.207298051497994038e+02
5.817091329374357578e-01 1.135491299931997133e+02
5.976825664072412669e-01 1.067776244088128124e+02
6.140946221409364636e-01 1.003932317177179527e+02
6.309573444801930275e-01 9.437499982760645878e+01
6.482831084981072189e-01 8.870304855789692056e+01
6.660846290809153691e-01 8.335851072534312323e+01
6.843749702590877781e-01 7.832347250813280937e+01
7.031675547946470983e-01 7.358093019207009888e+01
7.224761740317566794e-01 6.911474877402680761e+01
7.423149980177935481e-01 6.490962289889230874e+01
7.626985859023444059e-01 6.095104180031447783e+01
7.836418966217518767e-01 5.722524864276932277e+01
8.051602998770538422e-01 5.371920352612377769e+01
8.272695874133697558e-01 5.042054970036063821e+01
8.499859846090145332e-01 4.731758112646711822e+01
8.733261623828428855e-01 4.439921134498972322e+01
8.973072494285637690e-01 4.165494360333590151e+01
9.219468447849992199e-01 3.907484033562209191e+01
9.472630307515245152e-01 3.664949434832275443e+01
9.732743861581504285e-01 3.437000674110406351e+01
1.000000000000000000e+00 3.222796211721939130e+01
