# k [h/Mpc]    P(k) [(Mpc/h)^3]
1.000000000000000021e-03 3.122677100055138908e+03
1.027459485446180097e-03 3.200176548404825098e+03
1.055672994233329033e-03 3.279384336291842374e+03
1.084661231454404472e-03 3.360325587987787003e+03
1.114445470753562583e-03 3.443025212448344064e+03
1.145047569938281197e-03 3.527507647992728835e+03
1.176489987020186466e-03 3.613795461075521871e+03
1.208795796696343801e-03 3.701910047811675668e+03
1.241988707283130794e-03 3.791872195783345887e+03
1.276093078115091931e-03 3.883702035251712459e+03
1.311133937421564335e-03 3.977418986647242491e+03
1.347137000694184497e-03 4.073041706549339779e+03
1.384128689558757194e-03 4.170588032175880471e+03
1.422136151165336168e-03 4.270074914067930877e+03
1.461187278110747181e-03 4.371517677609412203e+03
1.501310728908172810e-03 4.474929460246833514e+03
1.542535949018822338e-03 4.580322064741408212e+03
1.584893192461114082e-03 4.687705982073633095e+03
1.628413544013250025e-03 4.797090318914339150e+03
1.673128942025444267e-03 4.908482723818798149e+03
1.719072201858574652e-03 5.021889312228092422e+03
1.766277039966442823e-03 5.137314590369984217e+03
1.814778098639323453e-03 5.254761132921715216e+03
1.864610971426956289e-03 5.374228000663509192e+03
1.915812229259642330e-03 5.495711488080346498e+03
1.968419447286611293e-03 5.619205710807562355e+03
2.022471232451355985e-03 5.744702518028806480e+03
2.078007251824171529e-03 5.872191402173189090e+03
2.135068261712696168e-03 6.001659408531040754e+03
2.193696137571797024e-03 6.133091044992245770e+03
2.253933904734791056e-03 6.266468169254136228e+03
2.315825769988507938e-03 6.401768398803521450e+03
2.379417154015395913e-03 6.538963931299485921e+03
2.444754724726473216e-03 6.678023496478459492e+03
2.511886431509579437e-03 6.818912466494341970e+03
2.580861540418074272e-03 6.961592759810978350e+03
2.651730670325789813e-03 7.106022747506554879e+03
2.724545830074793281e-03 7.252157162361364499e+03
2.799360456643182338e-03 7.399947011113110420e+03
2.876229454360987748e-03 7.549338873398848591e+03
2.955209235202887856e-03 7.700271055863565380e+03
3.036357760187358319e-03 7.852675644473005377e+03
3.119734581912619095e-03 8.006480132864395273e+03
3.205400888260593294e-03 8.161607351455303615e+03
3.293419547300957713e-03 8.317975397545929809e+03
3.383855153428233075e-03 8.475497573126520365e+03
3.476774074765777087e-03 8.634082330988199828e+03
3.572244501871464119e-03 8.793633167600994057e+03
3.670336497780800258e-03 8.954044524246353831e+03
3.771122049424195655e-03 9.115198885925565264e+03
3.874675120456132216e-03 9.276972377374244388e+03
3.981071705534973415e-03 9.439235322192764215e+03
4.090389886093310536e-03 9.601852248803310431e+03
4.202709887639691569e-03 9.764681912441121312e+03
4.318114138633850560e-03 9.927577333985867881e+03
4.436687330978611628e-03 1.009038585641839927e+04
4.558516482172869644e-03 1.025294744501102832e+04
4.683690999171267327e-03 1.041508402878553534e+04
4.812302743997420168e-03 1.057660595099876809e+04
4.944446101158830355e-03 1.073731708165657983e+04
5.080218046913023006e-03 1.089701501156798986e+04
5.219718220435652298e-03 1.105549125778594316e+04
5.363048996942865534e-03 1.121253149893878435e+04
5.510315562821568869e-03 1.136791584118306309e+04
5.661625992822727667e-03 1.152141891390878845e+04
5.817091329374357578e-03 1.167279709368814292e+04
5.976825664072413224e-03 1.182177997717321159e+04
6.140946221409365226e-03 1.196808929559246826e+04
6.309573444801930275e-03 1.211144128635517154e+04
6.482831084981073057e-03 1.225154726186367043e+04
6.660846290809154316e-03 1.238811422781842339e+04
6.843749702590877504e-03 1.252084555091169204e+04
7.031675547946470567e-03 1.264944167550809289e+04
7.224761740317567349e-03 1.277359659547501360e+04
7.423149980177935758e-03 1.289297295688473787e+04
7.626985859023443712e-03 1.300721903914014183e+04
7.836418966217518697e-03 1.311598201023358888e+04
8.051602998770538214e-03 1.321890913194110908e+04
8.272695874133697766e-03 1.331564898495584384e+04
8.499859846090154769e-03 1.340585275365362213e+04
8.733261623828437667e-03 1.348917556650687220e+04
8.973072494285637066e-03 1.356527745142970707e+04
9.219468447849992962e-03 1.363379665452287372e+04
9.472630307515245152e-03 1.369433336553159825e+04
9.732743861581504355e-03 1.374649237967398767e+04
1.000000000000000021e-02 1.378988917757411400e+04
1.027459485446180140e-02 1.382415202136331209e+04
1.055672994233329033e-02 1.384892409516699445e+04
1.084661231454404559e-02 1.386386567730414208e+04
1.114445470753563060e-02 1.386865633040052489e+04
1.145047569938281717e-02 1.386299320130018532e+04
1.176489987020185903e-02 1.384657033292513552e+04
1.208795796696343280e-02 1.381909658361944093e+04
1.241988707283130100e-02 1.378030932219909118e+04
1.276093078115091844e-02 1.372997685863827792e+04
1.311133937421564422e-02 1.366790076093537209e+04
1.347137000694184628e-02 1.359391807474879352e+04
1.384128689558757237e-02 1.350790342248570960e+04
1.422136151165336211e-02 1.340977165048550887e+04
1.461187278110747875e-02 1.329952361388611826e+04
1.501310728908173547e-02 1.317727216090086949e+04
1.542535949018821427e-02 1.304317574129428431e+04
1.584893192461113431e-02 1.289743196552929294e+04
1.628413544013249115e-02 1.274027743978366016e+04
1.673128942025444224e-02 1.257198737590716337e+04
1.719072201858574608e-02 1.239287497278073170e+04
1.766277039966442780e-02 1.220329056735903396e+04
1.814778098639323323e-02 1.200367342117863700e+04
1.864610971426956115e-02 1.179485139773796072e+04
1.915812229259642244e-02 1.157780280733808286e+04
1.968419447286612334e-02 1.135349319553343230e+04
2.022471232451356765e-02 1.112286967820360769e+04
2.078007251824172744e-02 1.088685631718910190e+04
2.135068261712695301e-02 1.064635000139805561e+04
2.193696137571795809e-02 1.040221683391094484e+04
2.253933904734791230e-02 1.015529527384884568e+04
2.315825769988507851e-02 9.906732069051666258e+03
2.379417154015396260e-02 9.658110575268756293e+03
2.444754724726472955e-02 9.410927441480074776e+03
2.511886431509579437e-02 9.166547110594063270e+03
2.580861540418074099e-02 8.926204346608876222e+03
2.651730670325791461e-02 8.691008555303684261e+03
2.724545830074791633e-02 8.461949607194444980e+03
2.799360456643180950e-02 8.239905209990078220e+03
2.876229454360986273e-02 8.025666565548553081e+03
2.955209235202886295e-02 7.819954075433580329e+03
3.036357760187358493e-02 7.623399653997652422e+03
3.119734581912619181e-02 7.436554610904193396e+03
3.205400888260593467e-02 7.259900279372650402e+03
3.293419547300957539e-02 7.093795361778527877e+03
3.383855153428233509e-02 6.937944464444775804e+03
3.476774074765778821e-02 6.791730199449734755e+03
3.572244501871466027e-02 6.654577504975324700e+03
3.670336497780802426e-02 6.525724596556574397e+03
3.771122049424197736e-02 6.403820735877556217e+03
3.874675120456130134e-02 6.287491114627833667e+03
3.981071705534973415e-02 6.175115239241665222e+03
4.090389886093310362e-02 6.064733844141108420e+03
4.202709887639691222e-02 5.954374370890461250e+03
4.318114138633850907e-02 5.841879036745435769e+03
4.436687330978611454e-02 5.725155551814667888e+03
4.558516482172869644e-02 5.602166104482064839e+03
4.683690999171270103e-02 5.471107871488216915e+03
4.812302743997418086e-02 5.330501236921325471e+03
4.944446101158827406e-02 5.179363155159216149e+03
5.080218046913020230e-02 5.017255558734071201e+03
5.219718220435649175e-02 4.844437039500116043e+03
5.363048996942865881e-02 4.661893654174980838e+03
5.510315562821568869e-02 4.471333465873110981e+03
5.661625992822727493e-02 4.275174130139154840e+03
5.817091329374357578e-02 4.076424452966743047e+03
5.976825664072413224e-02 3.878505144556270352e+03
6.140946221409365052e-02 3.685054835685059061e+03
6.309573444801933051e-02 3.499693537852953796e+03
6.482831084981076353e-02 3.325751299601494338e+03
6.660846290809158132e-02 3.166012276132801162e+03
6.843749702590873341e-02 3.022493689044275470e+03
7.031675547946467097e-02 2.896324982232596085e+03
7.224761740317567349e-02 2.787535667103881224e+03
7.423149980177935758e-02 2.695049339335046170e+03
7.626985859023444059e-02 2.616707557908678609e+03
7.836418966217519044e-02 2.549276131510949199e+03
8.051602998770537867e-02 2.488693690358900312e+03
8.272695874133702276e-02 2.430367633166186806e+03
8.499859846090150606e-02 2.369619029658820182e+03
8.733261623828432463e-02 2.302253678468377984e+03
8.973072494285633249e-02 2.225174855477574056e+03
9.219468447849987758e-02 2.136945256178588352e+03
9.472630307515245152e-02 2.038124448578441161e+03
9.732743861581504008e-02 1.931250914556101407e+03
1.000000000000000056e-01 1.820475774676105175e+03
1.027459485446180071e-01 1.710895058352927208e+03
1.055672994233329137e-01 1.607692857103479810e+03
1.084661231454404490e-01 1.515243573097666513e+03
1.114445470753562539e-01 1.436333590297709407e+03
1.145047569938281162e-01 1.371720194353436227e+03
1.176489987020185313e-01 1.319979551390367078e+03
1.208795796696343905e-01 1.277750511455955348e+03
1.241988707283130794e-01 1.240518882461013391e+03
1.276093078115091983e-01 1.203134355268407035e+03
1.311133937421564422e-01 1.160878443244214850e+03
1.347137000694184628e-01 1.111030310847853798e+03
1.384128689558757064e-01 1.053854322078917903e+03
1.422136151165336038e-01 9.922817775314700839e+02
1.461187278110747112e-01 9.308015375880160036e+02
1.501310728908172853e-01 8.738419786605342097e+02
1.542535949018820629e-01 8.245705361673361722e+02
1.584893192461114264e-01 7.841732914534552492e+02
1.628413544013249947e-01 7.515458683407526905e+02
1.673128942025444155e-01 7.234980823979584557e+02
1.719072201858574678e-01 6.959933935241516565e+02
1.766277039966442919e-01 6.658703049575558452e+02
1.814778098639323323e-01 6.319904608949988187e+02
1.864610971426956254e-01 5.955524097457483776e+02
1.915812229259642452e-01 5.594731307517577079e+02
1.968419447286611224e-01 5.268963904831625769e+02
2.022471232451355794e-01 4.992916833130331042e+02
2.078007251824171564e-01 4.760105356210074206e+02
2.135068261712696203e-01 4.549643310500027837e+02
2.193696137571796989e-01 4.338141051567228601e+02
2.253933904734791160e-01 4.112517081716439407e+02
2.315825769988507921e-01 3.878781121153770073e+02
2.379417154015396052e-01 3.653159077633518450e+02
2.444754724726473094e-01 3.449970871069224927e+02
2.511886431509579576e-01 3.272387432102325420e+02
2.580861540418074029e-01 3.110130953802537306e+02
2.651730670325789796e-01 2.950818598632052954e+02
2.724545830074790453e-01 2.789734083280864638e+02
2.799360456643182338e-01 2.631163186738060631e+02
2.876229454360987869e-01 2.483011482870746249e+02
2.955209235202888030e-01 2.348126401521236062e+02
3.036357760187358701e-01 2.223283915056268825e+02
3.119734581912619320e-01 2.103379573897408079e+02
3.205400888260593328e-01 1.985650630483540340e+02
3.293419547300957539e-01 1.872868139051557819e+02
3.383855153428233509e-01 1.767762095038565349e+02
3.476774074765777156e-01 1.670349874391551737e+02
3.572244501871464362e-01 1.577272462802562814e+02
3.670336497780800622e-01 1.487894032809445548e+02
3.771122049424199818e-01 1.403022313967599928e+02
3.874675120456131938e-01 1.323380510883206682e+02
3.981071705534973137e-01 1.248430871518225018e+02
4.090389886093310223e-01 1.177017369270054132e+02
4.202709887639691777e-01 1.109246945376669373e+02
4.318114138633850629e-01 1.045427224817249225e+02
4.436687330978611454e-01 9.851821459371939227e+01
4.558516482172869644e-01 9.281018239004669113e+01
4.683690999171267744e-01 8.740927489701515185e+01
4.812302743997415866e-01 8.231133803455360010e+01
4.944446101158824769e-01 7.750153552327694229e+01
5.080218046913023144e-01 7.296048811668700296e+01
5.219718220435651812e-01 6.867129494154292502e+01
5.363048996942866298e-01 6.462120478283193847e+01
5.510315562821569424e-01 6.079858850695081429e+01
5.661625992822727493e-01 5.719214098670474300e+01
5.817091329374357578e-01 5.379051944614079162e+01
5.976825664072412669e-01 5.058272871864902953e+01
6.140946221409364636e-01 4.755831987564520347e+01
6.309573444801930275e-01 4.470736734121648226e+01
6.482831084981072189e-01 4.202045357053017227e+01
6.660846290809153691e-01 3.948864101768565149e+01
6.843749702590877781e-01 3.710344373761289916e+01
7.031675547946470983e-01 3.485680689619783834e+01
7.224761740317566794e-01 3.274108716264937158e+01
7.423149980177935481e-01 3.074903422035217204e+01
7.626985859023444059e-01 2.887377421662837307e+01
7.836418966217518767e-01 2.710879043911780784e+01
8.051602998770538422e-01 2.544790576485724642e+01
8.272695874133697558e-01 2.388526666071704341e+01
8.499859846090145332e-01 2.241532782100495780e+01
8.733261623828428855e-01 2.103283742401431411e+01
8.973072494285637690e-01 1.973282298397229440e+01
9.219468447849992199e-01 1.851057683205922189e+01
9.472630307515245152e-01 1.736164242233624577e+01
9.732743861581504285e-01 1.628180401686251599e+01
1.000000000000000000e+00 1.526707495652494195e+01
