# k [h/Mpc]    P(k) [(Mpc/h)^3]
1.000000000000000021e-03 1.060971894172636348e+04
1.027459485446180097e-03 1.087287769300716354e+04
1.055672994233329033e-03 1.114183867426677898e+04
1.084661231454404472e-03 1.141668649274017116e+04
1.114445470753562583e-03 1.169750494687841092e+04
1.145047569938281197e-03 1.198437624219352620e+04
1.176489987020186466e-03 1.227737676574324541e+04
1.208795796696343801e-03 1.257657917412612915e+04
1.241988707283130794e-03 1.288205406117102211e+04
1.276093078115091931e-03 1.319386979152844287e+04
1.311133937421564335e-03 1.351209232248677290e+04
1.347137000694184497e-03 1.383678502065858265e+04
1.384128689558757194e-03 1.416800847360644548e+04
1.422136151165336168e-03 1.450582025955750942e+04
1.461187278110747181e-03 1.485027231992140150e+04
1.501310728908172810e-03 1.520140895981145331e+04
1.542535949018822338e-03 1.555926990697493238e+04
1.584893192461114082e-03 1.592389040477210438e+04
1.628413544013250025e-03 1.629530096447496908e+04
1.673128942025444267e-03 1.667352711321584502e+04
1.719072201858574652e-03 1.705858913787662095e+04
1.766277039966442823e-03 1.745050182523493277e+04
1.814778098639323453e-03 1.784927337245491799e+04
1.864610971426956289e-03 1.825490005240771643e+04
1.915812229259642330e-03 1.866736872921139366e+04
1.968419447286611293e-03 1.908665883402344843e+04
2.022471232451355985e-03 1.951274206642284480e+04
2.078007251824171529e-03 1.994558208671470129e+04
2.135068261712696168e-03 2.038513420799470623e+04
2.193696137571797024e-03 2.083134508867104523e+04
2.253933904734791056e-03 2.128415235002809277e+04
2.315825769988507938e-03 2.174347927456088655e+04
2.379417154015395913e-03 2.220923087140177813e+04
2.444754724726473216e-03 2.268130037022630859e+04
2.511886431509579437e-03 2.315956958248931915e+04
2.580861540418074272e-03 2.364390857535216855e+04
2.651730670325789813e-03 2.413417535386770396e+04
2.724545830074793281e-03 2.463021555268879456e+04
2.799360456643182338e-03 2.513186213860721546e+04
2.876229454360987748e-03 2.563893319269877247e+04
2.955209235202887856e-03 2.615121984160266948e+04
3.036357760187358319e-03 2.666849266855126189e+04
3.119734581912619095e-03 2.719050679714235594e+04
3.205400888260593294e-03 2.771700165301006928e+04
3.293419547300957713e-03 2.824770073019335541e+04
3.383855153428233075e-03 2.878231138334633579e+04
3.476774074765777087e-03 2.932052464778830108e+04
3.572244501871464119e-03 2.986201485295954990e+04
3.670336497780800258e-03 3.040642404310049460e+04
3.771122049424195655e-03 3.095335095173138325e+04
3.874675120456132216e-03 3.150237230238356278e+04
3.981071705534973415e-03 3.205304493817615003e+04
4.090389886093310536e-03 3.260490584107126415e+04
4.202709887639691569e-03 3.315747220639395528e+04
4.318114138633850560e-03 3.371024157541372551e+04
4.436687330978611628e-03 3.426269202871053130e+04
4.558516482172869644e-03 3.481427659998206218e+04
4.683690999171267327e-03 3.536438819732741104e+04
4.812302743997420168e-03 3.591238085993373534e+04
4.944446101158830355e-03 3.645758661169381958e+04
5.080218046913023006e-03 3.699931612406377826e+04
5.219718220435652298e-03 3.753685942000071373e+04
5.363048996942865534e-03 3.806948667999641475e+04
5.510315562821568869e-03 3.859644915269214107e+04
5.661625992822727667e-03 3.911697950333019253e+04
5.817091329374357578e-03 3.963024943761070608e+04
5.976825664072413224e-03 4.013534143738511921e+04
6.140946221409365226e-03 4.063131159200857655e+04
6.309573444801930275e-03 4.111719751548207569e+04
6.482831084981073057e-03 4.159202028207347757e+04
6.660846290809154316e-03 4.205478652921153116e+04
6.843749702590877504e-03 4.250449072722888377e+04
7.031675547946470567e-03 4.294011761452565406e+04
7.224761740317567349e-03 4.336062990673025342e+04
7.423149980177935758e-03 4.376488189500362932e+04
7.626985859023443712e-03 4.415167828374990495e+04
7.836418966217518697e-03 4.451982009616881987e+04
8.051602998770538214e-03 4.486810878298257012e+04
8.272695874133697766e-03 4.519535039614611014e+04
8.499859846090154769e-03 4.550035996535188315e+04
8.733261623828437667e-03 4.578196606371141388e+04
8.973072494285637066e-03 4.603901407991311862e+04
9.219468447849992962e-03 4.627027653328510496e+04
9.472630307515245152e-03 4.647439840938756242e+04
9.732743861581504355e-03 4.665004073574420181e+04
1.000000000000000021e-02 4.679590109846620180e+04
1.027459485446180140e-02 4.691072075788729853e+04
1.055672994233329033e-02 4.699329191282398824e+04
1.084661231454404559e-02 4.704246507032020600e+04
1.114445470753563060e-02 4.705715647392637766e+04
1.145047569938281717e-02 4.703634285935909429e+04
1.176489987020185903e-02 4.697899436525083001e+04
1.208795796696343280e-02 4.688413319185454748e+04
1.241988707283130100e-02 4.675087848300216865e+04
1.276093078115091844e-02 4.657845450475999678e+04
1.311133937421564422e-02 4.636619843882607529e+04
1.347137000694184628e-02 4.611356784212809725e+04
1.384128689558757237e-02 4.582014769410590816e+04
1.422136151165336211e-02 4.548565925181822968e+04
1.461187278110747875e-02 4.511011218318689498e+04
1.501310728908173547e-02 4.469389088483287924e+04
1.542535949018821427e-02 4.423753394094181567e+04
1.584893192461113431e-02 4.374171273388553527e+04
1.628413544013249115e-02 4.320723088752038893e+04
1.673128942025444224e-02 4.263502294672552671e+04
1.719072201858574608e-02 4.202615228107928851e+04
1.766277039966442780e-02 4.138180820674791903e+04
1.814778098639323323e-02 4.070348205687927111e+04
1.864610971426956115e-02 3.999398595248893253e+04
1.915812229259642244e-02 3.925664299051807029e+04
1.968419447286612334e-02 3.849473236264022125e+04
2.022471232451356765e-02 3.771147013406750921e+04
2.078007251824172744e-02 3.690999356302240631e+04
2.135068261712695301e-02 3.609334714098786208e+04
2.193696137571795809e-02 3.526447035489609698e+04
2.253933904734791230e-02 3.442620834151940653e+04
2.315825769988507851e-02 3.358245000764993893e+04
2.379417154015396260e-02 3.273856257476003157e+04
2.444754724726472955e-02 3.189961852109270330e+04
2.511886431509579437e-02 3.107024151788356539e+04
2.580861540418074099e-02 3.025461508649663301e+04
2.651730670325791461e-02 2.945649733096624186e+04
2.724545830074791633e-02 2.867924075739151886e+04
2.799360456643180950e-02 2.792581734294453418e+04
2.876229454360986273e-02 2.719890576879250148e+04
2.955209235202886295e-02 2.650094478470087779e+04
3.036357760187358493e-02 2.583407300176568242e+04
3.119734581912619181e-02 2.520015563888678662e+04
3.205400888260593467e-02 2.460082059656722049e+04
3.293419547300957539e-02 2.403728003542526130e+04
3.383855153428233509e-02 2.350852916375418499e+04
3.476774074765778821e-02 2.301247209826907783e+04
3.572244501871466027e-02 2.254715671863139869e+04
3.670336497780802426e-02 2.210999873871190357e+04
3.771122049424197736e-02 2.169641925384906790e+04
3.874675120456130134e-02 2.130175840026776859e+04
3.981071705534973415e-02 2.092052423291360901e+04
4.090389886093310362e-02 2.054607738441074252e+04
4.202709887639691222e-02 2.017173454607420717e+04
4.318114138633850907e-02 1.979018677035220389e+04
4.436687330978611454e-02 1.939434648427576394e+04
4.558516482172869644e-02 1.897730780344522645e+04
4.683690999171270103e-02 1.853296288231887956e+04
4.812302743997418086e-02 1.805630234540886522e+04
4.944446101158827406e-02 1.754399890763954681e+04
5.080218046913020230e-02 1.699457076779568524e+04
5.219718220435649175e-02 1.640889494918413766e+04
5.363048996942865881e-02 1.579031042749252811e+04
5.510315562821568869e-02 1.514460085282949876e+04
5.661625992822727493e-02 1.447995652257051188e+04
5.817091329374357578e-02 1.380657030073656097e+04
5.976825664072413224e-02 1.313602711241505676e+04
6.140946221409365052e-02 1.248064558419909190e+04
6.309573444801933051e-02 1.185268505459195330e+04
6.482831084981076353e-02 1.126342215039731127e+04
6.660846290809158132e-02 1.072228328863031857e+04
6.843749702590873341e-02 1.023609762171549482e+04
7.031675547946467097e-02 9.808686041824166750e+03
7.224761740317567349e-02 9.440145482522004386e+03
7.423149980177935758e-02 9.126828097577279550e+03
7.626985859023444059e-02 8.861421977731120933e+03
7.836418966217519044e-02 8.632973714146437487e+03
8.051602998770537867e-02 8.427727459927085874e+03
8.272695874133702276e-02 8.230129609036019247e+03
8.499859846090150606e-02 8.024335192150256262e+03
8.733261623828432463e-02 7.796140770670065649e+03
8.973072494285633249e-02 7.535060093505955592e+03
9.219468447849987758e-02 7.236228225348039814e+03
9.472630307515245152e-02 6.901541509544393193e+03
9.732743861581504008e-02 6.539594300573940927e+03
1.000000000000000056e-01 6.164441897834806696e+03
1.027459485446180071e-01 5.793341560052936984e+03
1.055672994233329137e-01 5.443846591916859325e+03
1.084661231454404490e-01 5.130767612168757296e+03
1.114445470753562539e-01 4.863540114877601809e+03
1.145047569938281162e-01 4.644726833727735539e+03
1.176489987020185313e-01 4.469503985141622252e+03
1.208795796696343905e-01 4.326491323833661227e+03
1.241988707283130794e-01 4.200403102802095418e+03
1.276093078115091983e-01 4.073798438768014876e+03
1.311133937421564422e-01 3.930700909089660854e+03
1.347137000694184628e-01 3.761899068123850611e+03
1.384128689558757064e-01 3.568288224421703944e+03
1.422136151165336038e-01 3.359793681729171567e+03
1.461187278110747112e-01 3.151613358720783708e+03
1.501310728908172853e-01 2.958741809666552854e+03
1.542535949018820629e-01 2.791903835787144089e+03
1.584893192461114264e-01 2.655114595976087912e+03
1.628413544013249947e-01 2.544633890237690139e+03
1.673128942025444155e-01 2.449659599320229972e+03
1.719072201858574678e-01 2.356525897329190684e+03
1.766277039966442919e-01 2.254527948604949415e+03
1.814778098639323323e-01 2.139810393410313736e+03
1.864610971426956254e-01 2.016431849235264053e+03
1.915812229259642452e-01 1.894269763417378954e+03
1.968419447286611224e-01 1.783967213799280671e+03
2.022471232451355794e-01 1.690499214324951026e+03
2.078007251824171564e-01 1.611670671270797357e+03
2.135068261712696203e-01 1.540410011233121168e+03
2.193696137571796989e-01 1.468797115676864905e+03
2.253933904734791160e-01 1.392402570495170721e+03
2.315825769988507921e-01 1.313262552853970419e+03
2.379417154015396052e-01 1.236869676330239372e+03
2.444754724726473094e-01 1.168073253209362065e+03
2.511886431509579576e-01 1.107947965850176388e+03
2.580861540418074029e-01 1.053009329941299711e+03
2.651730670325789796e-01 9.990684331860592238e+02
2.724545830074790453e-01 9.445286604007845881e+02
2.799360456643182338e-01 8.908393495387987286e+02
2.876229454360987869e-01 8.406777990236097367e+02
2.955209235202888030e-01 7.950092474149629425e+02
3.036357760187358701e-01 7.527409119283380505e+02
3.119734581912619320e-01 7.121439873527178861e+02
3.205400888260593328e-01 6.722839059833637521e+02
3.293419547300957539e-01 6.340984302274391666e+02
3.383855153428233509e-01 5.985120990420331282e+02
3.476774074765777156e-01 5.655310331161941804e+02
3.572244501871464362e-01 5.340173407819536351e+02
3.670336497780800622e-01 5.037559429759498357e+02
3.771122049424199818e-01 4.750206587750726044e+02
3.874675120456131938e-01 4.480561690526537291e+02
3.981071705534973137e-01 4.226803089772716930e+02
4.090389886093310223e-01 3.985016844308188979e+02
4.202709887639691777e-01 3.755564938372613710e+02
4.318114138633850629e-01 3.539488924112509949e+02
4.436687330978611454e-01 3.335516150055939875e+02
4.558516482172869644e-01 3.142259249492042272e+02
4.683690999171267744e-01 2.959401043126786703e+02
4.812302743997415866e-01 2.786800244864538740e+02
4.944446101158824769e-01 2.623954586679321324e+02
5.080218046913023144e-01 2.470208296271569282e+02
5.219718220435651812e-01 2.324989333446918636e+02
5.363048996942866298e-01 2.187865766946080157e+02
5.510315562821569424e-01 2.058443630046178043e+02
5.661625992822727493e-01 1.936340019625698403e+02
5.817091329374357578e-01 1.821171041234475467e+02
5.976825664072412669e-01 1.712564638190135895e+02
6.140946221409364636e-01 1.610167202570985410e+02
6.309573444801930275e-01 1.513642795991352727e+02
6.482831084981072189e-01 1.422672528873698639e+02
6.660846290809153691e-01 1.336953689201008899e+02
6.843749702590877781e-01 1.256198874496733282e+02
7.031675547946470983e-01 1.180135297028099615e+02
7.224761740317566794e-01 1.108504117445948083e+02
7.423149980177935481e-01 1.041059823174988139e+02
7.626985859023444059e-01 9.775696937928201180e+01
7.836418966217518767e-01 9.178131126236100101e+01
8.051602998770538422e-01 8.615809573832491708e+01
8.272695874133697558e-01 8.086750588453281807e+01
8.499859846090145332e-01 7.589076810597207157e+01
8.733261623828428855e-01 7.121010224912519959e+01
8.973072494285637690e-01 6.680867372795462700e+01
9.219468447849992199e-01 6.267054431685381388e+01
9.472630307515245152e-01 5.878062575385447275e+01
9.732743861581504285e-01 5.512464500218796815e+01
1.000000000000000000e+00 5.168910457001457104e+01
