# k [h/Mpc]    P(k) [(Mpc/h)^3]
1.000000000000000021e-03 1.794695540355324920e+04
1.027459485446180097e-03 1.839205065949467462e+04
1.055672994233329033e-03 1.884695951669572969e+04
1.084661231454404472e-03 1.931182518224486557e+04
1.114445470753562583e-03 1.978678950496688049e+04
1.145047569938281197e-03 2.027199162432201774e+04
1.176489987020186466e-03 2.076756066845180248e+04
1.208795796696343801e-03 2.127361937024372310e+04
1.241988707283130794e-03 2.179028695668841101e+04
1.276093078115091931e-03 2.231767886673393878e+04
1.311133937421564335e-03 2.285590644895095102e+04
1.347137000694184497e-03 2.340507665050012656e+04
1.384128689558757194e-03 2.396529169751937297e+04
1.422136151165336168e-03 2.453664870545954909e+04
1.461187278110747181e-03 2.511923529016699104e+04
1.501310728908172810e-03 2.571312622655973246e+04
1.542535949018822338e-03 2.631838854587473179e+04
1.584893192461114082e-03 2.693508168481698522e+04
1.628413544013250025e-03 2.756325706625879320e+04
1.673128942025444267e-03 2.820295767258485284e+04
1.719072201858574652e-03 2.885421761217450330e+04
1.766277039966442823e-03 2.951706167955775527e+04
1.814778098639323453e-03 3.019150351725774453e+04
1.864610971426956289e-03 3.087753662285974497e+04
1.915812229259642330e-03 3.157513858687342145e+04
1.968419447286611293e-03 3.228427442084785798e+04
2.022471232451355985e-03 3.300489605218793440e+04
2.078007251824171529e-03 3.373694180368031084e+04
2.135068261712696168e-03 3.448033587262951914e+04
2.193696137571797024e-03 3.523498781078456523e+04
2.253933904734791056e-03 3.600079187975260720e+04
2.315825769988507938e-03 3.677761823158725747e+04
2.379417154015395913e-03 3.756530636147731275e+04
2.444754724726473216e-03 3.836367589089202374e+04
2.511886431509579437e-03 3.917252715935742162e+04
2.580861540418074272e-03 3.999164067422426888e+04
2.651730670325789813e-03 4.082077657437579910e+04
2.724545830074793281e-03 4.165967411000619904e+04
2.799360456643182338e-03 4.250805114067631075e+04
2.876229454360987748e-03 4.336560030682099750e+04
2.955209235202887856e-03 4.423196813965356705e+04
3.036357760187358319e-03 4.510676617632015405e+04
3.119734581912619095e-03 4.598957977541801665e+04
3.205400888260593294e-03 4.687996771410499787e+04
3.293419547300957713e-03 4.777746179246179236e+04
3.383855153428233075e-03 4.868156648166013474e+04
3.476774074765777087e-03 4.959175861931881082e+04
3.572244501871464119e-03 5.050748675215757976e+04
3.670336497780800258e-03 5.142814456390999840e+04
3.771122049424195655e-03 5.235305207073343627e+04
3.874675120456132216e-03 5.328149195536415209e+04
3.981071705534973415e-03 5.421271320024683519e+04
4.090389886093310536e-03 5.514593112067360926e+04
4.202709887639691569e-03 5.608032749179074744e+04
4.318114138633850560e-03 5.701505077422665636e+04
4.436687330978611628e-03 5.794921644296908198e+04
4.558516482172869644e-03 5.888189765738006099e+04
4.683690999171267327e-03 5.981206663643277716e+04
4.812302743997420168e-03 6.073863020170912932e+04
4.944446101158830355e-03 6.166045796196019364e+04
5.080218046913023006e-03 6.257638343649655872e+04
5.219718220435652298e-03 6.348520524932057742e+04
5.363048996942865534e-03 6.438568849604066054e+04
5.510315562821568869e-03 6.527656628775521676e+04
5.661625992822727667e-03 6.615654034628967929e+04
5.817091329374357578e-03 6.702420947173178138e+04
5.976825664072413224e-03 6.787802183669578517e+04
6.140946221409365226e-03 6.871638106992180110e+04
6.309573444801930275e-03 6.953765963152277982e+04
6.482831084981073057e-03 7.034020209037911263e+04
6.660846290809154316e-03 7.112232868423129548e+04
6.843749702590877504e-03 7.188233916172408499e+04
7.031675547946470567e-03 7.261851690394758771e+04
7.224761740317567349e-03 7.332910798741280450e+04
7.423149980177935758e-03 7.401217414611410641e+04
7.626985859023443712e-03 7.466569286292005563e+04
7.836418966217518697e-03 7.528763545108326070e+04
8.051602998770538214e-03 7.587597401463247661e+04
8.272695874133697766e-03 7.642868851749063469e+04
8.499859846090154769e-03 7.694377419586923497e+04
8.733261623828437667e-03 7.741924929084078758e+04
8.973072494285637066e-03 7.785316061035277380e+04
9.219468447849992962e-03 7.824343295608332846e+04
9.472630307515245152e-03 7.858777738420787500e+04
9.732743861581504355e-03 7.888393244548818620e+04
1.000000000000000021e-02 7.912969871996770962e+04
1.027459485446180140e-02 7.932295084215469251e+04
1.055672994233329033e-02 7.946164977553579956e+04
1.084661231454404559e-02 7.954385526343775564e+04
1.114445470753563060e-02 7.956773837684217142e+04
1.145047569938281717e-02 7.953157250999548705e+04
1.176489987020185903e-02 7.943361920858042140e+04
1.208795796696343280e-02 7.927222783870510466e+04
1.241988707283130100e-02 7.904591182243450021e+04
1.276093078115091844e-02 7.875336245711712399e+04
1.311133937421564422e-02 7.839346208049557754e+04
1.347137000694184628e-02 7.796529666988320241e+04
1.384128689558757237e-02 7.746816774269114831e+04
1.422136151165336211e-02 7.690160731342939835e+04
1.461187278110747875e-02 7.626563517872753437e+04
1.501310728908173547e-02 7.556090486743126530e+04
1.542535949018821427e-02 7.478833059515203058e+04
1.584893192461113431e-02 7.394905106518168759e+04
1.628413544013249115e-02 7.304442850540574000e+04
1.673128942025444224e-02 7.207604641390123288e+04
1.719072201858574608e-02 7.104570599294779822e+04
1.766277039966442780e-02 6.995542126162862405e+04
1.814778098639323323e-02 6.880771668765343202e+04
1.864610971426956115e-02 6.760734938727323606e+04
1.915812229259642244e-02 6.635993997952435166e+04
1.968419447286612334e-02 6.507103451069763105e+04
2.022471232451356765e-02 6.374607196120716981e+04
2.078007251824172744e-02 6.239035774150377256e+04
2.135068261712695301e-02 6.100904010009018384e+04
2.193696137571795809e-02 5.960708944527606945e+04
2.253933904734791230e-02 5.818931636547231756e+04
2.315825769988507851e-02 5.676229543126885983e+04
2.379417154015396260e-02 5.533509957300996030e+04
2.444754724726472955e-02 5.391630294154780131e+04
2.511886431509579437e-02 5.251372054139248212e+04
2.580861540418074099e-02 5.113442292324059963e+04
2.651730670325791461e-02 4.978476114495914953e+04
2.724545830074791633e-02 4.847040032888109272e+04
2.799360456643180950e-02 4.719636208682548022e+04
2.876229454360986273e-02 4.596717186820117058e+04
2.955209235202886295e-02 4.478694914036631963e+04
3.036357760187358493e-02 4.365930588780262042e+04
3.119734581912619181e-02 4.258739187513470824e+04
3.205400888260593467e-02 4.157395564972332068e+04
3.293419547300957539e-02 4.062104307559838344e+04
3.383855153428233509e-02 3.972695366904009279e+04
3.476774074765778821e-02 3.888814333632886701e+04
3.572244501871466027e-02 3.810131112454697723e+04
3.670336497780802426e-02 3.736208791465668037e+04
3.771122049424197736e-02 3.666273402848786645e+04
3.874675120456130134e-02 3.599537338253841881e+04
3.981071705534973415e-02 3.535072456037793017e+04
4.090389886093310362e-02 3.471756810082196898e+04
4.202709887639691222e-02 3.408461052332040708e+04
4.318114138633850907e-02 3.343950083288578753e+04
4.436687330978611454e-02 3.277026333541310305e+04
4.558516482172869644e-02 3.206523199843680050e+04
4.683690999171270103e-02 3.131408728593081105e+04
4.812302743997418086e-02 3.050836223055092341e+04
4.944446101158827406e-02 2.964243911409277644e+04
5.080218046913020230e-02 2.871382035254635775e+04
5.219718220435649175e-02 2.772398271461363765e+04
5.363048996942865881e-02 2.667856873835335500e+04
5.510315562821568869e-02 2.558735653466790245e+04
5.661625992822727493e-02 2.446418067969530603e+04
5.817091329374357578e-02 2.332626126730429314e+04
5.976825664072413224e-02 2.219317075544062027e+04
6.140946221409365052e-02 2.108571843954412543e+04
6.309573444801933051e-02 2.002462292732639253e+04
6.482831084981076353e-02 1.902893052168390204e+04
6.660846290809158132e-02 1.811455666228621703e+04
6.843749702590873341e-02 1.729304070015878460e+04
7.031675547946467097e-02 1.657083506796154325e+04
7.224761740317567349e-02 1.594810180064272390e+04
7.423149980177935758e-02 1.541867236041459364e+04
7.626985859023444059e-02 1.497019001951916653e+04
7.836418966217519044e-02 1.458416074595628925e+04
8.051602998770537867e-02 1.423733414585294486e+04
8.272695874133702276e-02 1.390343254404846084e+04
8.499859846090150606e-02 1.355569292295680134e+04
8.733261623828432463e-02 1.317011971561350038e+04
8.973072494285633249e-02 1.272899583752326362e+04
9.219468447849987758e-02 1.222410795896771924e+04
9.472630307515245152e-02 1.165866270956028711e+04
9.732743861581504008e-02 1.104717401818960388e+04
1.000000000000000056e-01 1.041338394075626456e+04
1.027459485446180071e-01 9.786449908158170729e+03
1.055672994233329137e-01 9.196019381337837331e+03
1.084661231454404490e-01 8.667109167991995491e+03
1.114445470753562539e-01 8.215661449066377827e+03
1.145047569938281162e-01 7.846003365065251273e+03
1.176489987020185313e-01 7.549981250671347880e+03
1.208795796696343905e-01 7.308372575030200096e+03
1.241988707283130794e-01 7.095355763399747048e+03
1.276093078115091983e-01 6.881469222478488518e+03
1.311133937421564422e-01 6.639725924632408351e+03
1.347137000694184628e-01 6.354565684731665897e+03
1.384128689558757064e-01 6.027500420971627136e+03
1.422136151165336038e-01 5.675296903292703064e+03
1.461187278110747112e-01 5.323627251985973089e+03
1.501310728908172853e-01 4.997819112356280129e+03
1.542535949018820629e-01 4.715987724291391714e+03
1.584893192461114264e-01 4.484915976423344546e+03
1.628413544013249947e-01 4.298286631514395594e+03
1.673128942025444155e-01 4.137850093335776364e+03
1.719072201858574678e-01 3.980523292929975014e+03
1.766277039966442919e-01 3.808224498992351982e+03
1.814778098639323323e-01 3.614442732891377545e+03
1.864610971426956254e-01 3.406033434602150464e+03
1.915812229259642452e-01 3.199677419804037072e+03
1.968419447286611224e-01 3.013355546432809660e+03
2.022471232451355794e-01 2.855471802629050671e+03
2.078007251824171564e-01 2.722315661469815495e+03
2.135068261712696203e-01 2.601942092060912273e+03
2.193696137571796989e-01 2.480975699016536055e+03
2.253933904734791160e-01 2.351933346455738956e+03
2.315825769988507921e-01 2.218253323165841266e+03
2.379417154015396052e-01 2.089214411607170405e+03
2.444754724726473094e-01 1.973007026051352796e+03
2.511886431509579576e-01 1.871445376240707219e+03
2.580861540418074029e-01 1.778646736246527780e+03
2.651730670325789796e-01 1.687533504328782556e+03
2.724545830074790453e-01 1.595407855938301736e+03
2.799360456643182338e-01 1.504718590865321630e+03
2.876229454360987869e-01 1.419988416707228225e+03
2.955209235202888030e-01 1.342847510447016248e+03
3.036357760187358701e-01 1.271450581823585253e+03
3.119734581912619320e-01 1.202877406169422784e+03
3.205400888260593328e-01 1.135548778193971202e+03
3.293419547300957539e-01 1.071049575707729673e+03
3.383855153428233509e-01 1.010941210777222182e+03
3.476774074765777156e-01 9.552330496439311673e+02
3.572244501871464362e-01 9.020024762627870132e+02
3.670336497780800622e-01 8.508876790613047660e+02
3.771122049424199818e-01 8.023518554618718781e+02
3.874675120456131938e-01 7.568058461889235105e+02
3.981071705534973137e-01 7.139423542163244747e+02
4.090389886093310223e-01 6.731023907062530043e+02
4.202709887639691777e-01 6.343464186515624306e+02
4.318114138633850629e-01 5.978492080592471893e+02
4.436687330978611454e-01 5.633960119054207780e+02
4.558516482172869644e-01 5.307528922158267051e+02
4.683690999171267744e-01 4.998663867227234050e+02
4.812302743997415866e-01 4.707126509093214963e+02
4.944446101158824769e-01 4.432067441773962173e+02
5.080218046913023144e-01 4.172377519118228406e+02
5.219718220435651812e-01 3.927089747947280216e+02
5.363048996942866298e-01 3.695475296282911017e+02
5.510315562821569424e-01 3.476869577881504938e+02
5.661625992822727493e-01 3.270626401661988325e+02
5.817091329374357578e-01 3.076097127003644687e+02
5.976825664072412669e-01 2.892652893492339672e+02
6.140946221409364636e-01 2.719696087206951916e+02
6.309573444801930275e-01 2.556659029312760651e+02
6.482831084981072189e-01 2.403003077065228865e+02
6.660846290809153691e-01 2.258217034901781233e+02
6.843749702590877781e-01 2.121815547975315326e+02
7.031675547946470983e-01 1.993337928763768048e+02
7.224761740317566794e-01 1.872347033985550695e+02
7.423149980177935481e-01 1.758428209593938334e+02
7.626985859023444059e-01 1.651188359350737471e+02
7.836418966217518767e-01 1.550254819269828204e+02
8.051602998770538422e-01 1.455274344759028509e+02
8.272695874133697558e-01 1.365912195700595646e+02
8.499859846090145332e-01 1.281851257976623515e+02
8.733261623828428855e-01 1.202791200386269850e+02
8.973072494285637690e-01 1.128447665632420893e+02
9.219468447849992199e-01 1.058551443726523331e+02
9.472630307515245152e-01 9.928476915830658811e+01
9.732743861581504285e-01 9.310953350926619976e+01
1.000000000000000000e+00 8.730663977182319968e+01
